x_axis,Intensity,Error
1.009999999999999964e+01,1.956258064000000019e+00,1.239143308999999915e+00
1.030000000000000071e+01,2.335306388999999871e+00,1.110715847000000034e+00
1.050000000000000000e+01,6.392070941000000062e+00,1.911375057000000099e+00
1.069999999999999929e+01,1.098507357999999989e+01,2.501384701000000099e+00
1.090000000000000036e+01,1.149716485000000077e+01,2.505629979000000063e+00
1.109999999999999964e+01,1.486446403999999966e+01,2.827462526999999781e+00
1.130000000000000071e+01,3.904002194000000259e+01,4.735947953000000155e+00
1.150000000000000000e+01,4.563579419999999942e+01,5.235376321999999583e+00
1.169999999999999929e+01,6.843934763999999404e+01,6.485492347000000102e+00
1.190000000000000036e+01,7.336271748999999431e+01,6.748933835999999964e+00
1.209999999999999964e+01,6.010837956999999676e+01,5.899301308000000077e+00
1.230000000000000071e+01,4.302472595999999783e+01,5.008091947999999682e+00
1.250000000000000000e+01,2.309830280999999985e+01,3.592832291000000122e+00
1.269999999999999929e+01,1.176561069999999987e+01,2.301558496999999814e+00
1.290000000000000036e+01,1.187291455000000084e+01,2.198763046999999915e+00
1.309999999999999964e+01,1.669447796000000039e+01,2.536901702999999841e+00
1.330000000000000071e+01,2.574751269000000065e+01,3.090913304999999944e+00
1.350000000000000000e+01,3.222164200000000278e+01,3.500269579999999880e+00
1.369999999999999929e+01,3.959596977000000351e+01,3.944220560999999847e+00
1.390000000000000036e+01,4.311923352000000165e+01,4.144821499999999936e+00
1.409999999999999964e+01,3.053262094000000104e+01,3.458051755000000060e+00
1.430000000000000071e+01,1.594105957000000018e+01,2.314237858999999897e+00
1.450000000000000000e+01,9.788611624999999705e+00,1.869570275000000059e+00
1.469999999999999929e+01,4.437127990999999660e+00,1.124514336999999919e+00
1.490000000000000036e+01,1.457997611999999998e+00,3.672874071000000185e-01
1.509999999999999964e+01,3.773192673999999913e-01,1.288046995999999889e-01
1.530000000000000071e+01,4.274861655000000149e-01,1.926298636000000064e-01
1.550000000000000000e+01,3.434927507000000158e-01,2.329110513000000049e-01
1.569999999999999929e+01,5.449982440000000067e-02,4.427985758999999910e-02
1.590000000000000036e+01,6.562445003000000332e-01,3.023031103000000108e-01
1.610000000000000142e+01,4.193936165000000105e-01,1.189217865000000013e-01
1.630000000000000071e+01,5.565486511999999664e-01,1.360657722999999986e-01
1.650000000000000000e+01,1.007630044999999974e+00,3.904880074000000034e-01
1.669999999999999929e+01,9.924858611000000330e-01,1.848401454999999971e-01
1.689999999999999858e+01,1.112449231999999899e+00,2.095579354999999866e-01
1.710000000000000142e+01,2.042147529999999822e+00,9.594357183999999705e-01
1.730000000000000071e+01,6.306459755000000111e-01,1.710251238000000118e-01
1.750000000000000000e+01,5.098615713999999910e-01,1.343613945000000087e-01
1.769999999999999929e+01,4.725531386999999861e-01,1.885012263999999993e-01
1.789999999999999858e+01,7.444790337000000147e-01,6.719056830999999841e-01
1.810000000000000142e+01,1.947658120000000048e+00,1.080339252999999999e+00
1.830000000000000071e+01,2.680582939999999859e+00,1.245571017000000058e+00
1.850000000000000000e+01,4.735149001999999996e+00,1.512949934000000107e+00
1.869999999999999929e+01,8.644904837000000342e+00,2.345836360999999926e+00
1.889999999999999858e+01,1.718575586000000044e+01,2.953756622999999859e+00
1.910000000000000142e+01,2.367913298999999938e+01,3.657388002999999888e+00
1.930000000000000071e+01,2.929344194000000101e+01,3.962842718000000097e+00
1.950000000000000000e+01,2.648833128000000059e+01,3.889771618000000153e+00
1.969999999999999929e+01,3.044859394999999935e+01,4.005701858000000115e+00
1.989999999999999858e+01,2.546395309000000040e+01,4.015843023000000400e+00
2.010000000000000142e+01,2.048163869000000048e+01,3.323564891999999826e+00
2.030000000000000071e+01,1.611371374000000145e+01,3.075247807000000222e+00
2.050000000000000000e+01,3.626621596000000114e+00,1.450012842000000024e+00
2.069999999999999929e+01,4.088639717000000395e+00,1.314948769999999989e+00
2.089999999999999858e+01,2.626539637000000038e+00,1.290972771999999935e+00
2.110000000000000142e+01,1.588523002000000073e+00,1.121318414999999957e+00
2.130000000000000071e+01,5.863525023000000225e-01,5.768923725000000280e-01
2.150000000000000000e+01,3.361113726000000135e+00,1.592481291999999993e+00
2.169999999999999929e+01,4.190353917000000372e+00,2.153159947999999879e+00
2.189999999999999858e+01,9.525582028000000534e+00,2.895417214000000072e+00
2.210000000000000142e+01,1.272075333999999991e+01,3.806319940999999929e+00
2.230000000000000071e+01,1.680794622999999888e+01,3.911829559000000067e+00
2.250000000000000000e+01,2.319917741000000078e+01,4.848267456000000308e+00
2.269999999999999929e+01,3.602242679999999808e+01,5.642123491999999629e+00
2.289999999999999858e+01,4.055301341999999920e+01,5.968483657000000164e+00
2.310000000000000142e+01,4.631019213999999806e+01,6.205890504000000085e+00
2.330000000000000071e+01,5.694818684999999903e+01,6.939858124999999767e+00
2.350000000000000000e+01,4.385810433000000330e+01,5.938710782000000243e+00
2.369999999999999929e+01,3.165677372000000034e+01,5.004873810000000312e+00
2.389999999999999858e+01,3.470349789000000129e+01,5.191583583999999973e+00
2.410000000000000142e+01,2.632736640999999977e+01,4.116130981999999605e+00
2.430000000000000071e+01,2.083128868000000011e+01,3.329189293999999855e+00
2.450000000000000000e+01,1.564194024000000027e+01,2.613705245999999871e+00
2.469999999999999929e+01,8.874658590999999319e+00,1.887891240000000082e+00
2.489999999999999858e+01,6.378787246999999994e+00,1.472577323999999965e+00
2.510000000000000142e+01,5.325382453999999655e+00,1.186375294999999941e+00
2.530000000000000071e+01,2.127923690999999895e+00,8.588331877999999531e-01
2.550000000000000000e+01,9.997069269999999674e-01,4.954858741000000011e-01
2.569999999999999929e+01,1.377244601999999984e+00,6.530466273999999682e-01
2.589999999999999858e+01,6.064623477999999679e-01,3.725620159999999959e-01
2.610000000000000142e+01,5.534785497999999970e-01,3.394395721999999838e-01
2.630000000000000071e+01,8.976682701999999514e-01,7.117374036000000403e-01
2.650000000000000000e+01,1.031709964000000035e+00,4.198778783000000070e-01
2.669999999999999929e+01,3.565348669000000026e+00,8.108463065000000025e-01
2.689999999999999858e+01,2.506138662000000128e+00,6.646217367000000209e-01
2.710000000000000142e+01,2.867316277000000024e+00,6.768776000999999765e-01
2.730000000000000071e+01,4.202967139000000074e+00,8.964468911999999845e-01
2.750000000000000000e+01,6.105775311000000372e+00,1.068125825999999945e+00
2.769999999999999929e+01,7.472517561000000086e+00,1.193551574000000004e+00
2.789999999999999858e+01,6.548541563999999759e+00,1.062210029000000056e+00
2.810000000000000142e+01,6.334234688999999641e+00,9.971241101000000162e-01
2.830000000000000071e+01,4.871667661000000038e+00,8.638056257999999765e-01
2.850000000000000000e+01,7.531756123000000080e+00,2.138361311000000153e+00
2.869999999999999929e+01,3.728696439999999779e+00,8.138889844000000151e-01
2.889999999999999858e+01,5.499549494000000038e+00,1.164864278000000031e+00
2.910000000000000142e+01,8.260100680000000750e+00,1.941767931000000003e+00
2.930000000000000071e+01,5.264866450999999614e+00,1.414010803000000038e+00
2.950000000000000000e+01,5.922415069000000365e+00,1.800140179000000007e+00
2.969999999999999929e+01,1.009995132999999967e+01,2.305178343000000130e+00
2.989999999999999858e+01,1.296586341000000075e+01,2.989218499000000140e+00
3.010000000000000142e+01,1.484758317000000005e+01,3.193369784999999794e+00
3.030000000000000071e+01,2.896604217999999875e+01,4.564784915999999804e+00
3.050000000000000000e+01,2.811998928999999947e+01,4.290180674000000138e+00
3.069999999999999929e+01,3.636712964000000170e+01,5.164639177999999831e+00
3.089999999999999858e+01,2.229657633000000061e+01,3.740517139000000046e+00
3.110000000000000142e+01,1.760879900000000120e+01,3.349530033000000184e+00
3.130000000000000071e+01,2.709916278000000034e+01,4.308175649999999912e+00
3.150000000000000000e+01,2.419139450000000124e+01,4.116244795000000067e+00
3.169999999999999929e+01,2.049074089999999870e+01,3.614883628999999932e+00
3.189999999999999858e+01,1.764928231000000025e+01,3.342334727999999977e+00
3.210000000000000142e+01,1.596711917000000014e+01,3.385257370999999793e+00
3.229999999999999716e+01,1.257289422999999928e+01,2.914252548999999970e+00
3.250000000000000000e+01,6.477581417999999758e+00,2.119336119999999823e+00
3.270000000000000284e+01,8.462115515000000698e+00,2.413189050999999807e+00
3.289999999999999858e+01,6.840661539000000069e+00,2.111492366999999870e+00
3.310000000000000142e+01,5.401779599000000154e+00,1.863361446999999949e+00
3.329999999999999716e+01,9.514138889999999904e+00,2.469377793000000043e+00
3.350000000000000000e+01,1.059956943000000074e+01,2.611498189999999830e+00
3.370000000000000284e+01,1.268330279000000083e+01,2.737828088000000104e+00
3.389999999999999858e+01,1.301220522999999929e+01,2.816316340999999834e+00
3.410000000000000142e+01,1.224647123999999998e+01,2.812185792000000184e+00
3.429999999999999716e+01,1.483495970000000064e+01,3.061696502000000208e+00
3.450000000000000000e+01,1.493851444000000050e+01,2.873156053000000210e+00
3.470000000000000284e+01,1.492409495000000064e+01,3.095410869999999814e+00
3.489999999999999858e+01,1.229533430000000038e+01,2.540077634000000195e+00
3.510000000000000142e+01,1.156858957000000032e+01,2.549317096999999865e+00
3.529999999999999716e+01,1.291889452000000027e+01,2.609794823000000097e+00
3.550000000000000000e+01,1.217310859000000001e+01,2.527247039999999778e+00
3.570000000000000284e+01,1.650204593999999858e+01,3.002969857000000076e+00
3.589999999999999858e+01,1.715668606999999923e+01,2.981166212000000204e+00
3.610000000000000142e+01,1.618512808999999919e+01,2.856541672000000087e+00
3.629999999999999716e+01,1.368679747000000013e+01,2.539753231000000167e+00
3.650000000000000000e+01,1.791248423000000045e+01,2.902449589999999802e+00
3.670000000000000284e+01,1.729551230999999945e+01,3.013205836000000026e+00
3.689999999999999858e+01,8.812699010999999416e+00,1.721529764000000018e+00
3.710000000000000142e+01,1.414988431999999996e+01,2.450867349999999778e+00
3.729999999999999716e+01,1.179360411000000042e+01,2.240913717000000194e+00
3.750000000000000000e+01,7.707730025000000040e+00,1.780499384000000074e+00
3.770000000000000284e+01,9.295963150000000397e+00,2.149624139000000156e+00
3.789999999999999858e+01,3.875935817999999866e+00,1.123286677000000067e+00
3.810000000000000142e+01,5.757478998999999931e+00,1.606672749999999983e+00
3.829999999999999716e+01,3.728929953999999825e+00,1.069400354000000108e+00
3.850000000000000000e+01,5.436283738000000199e+00,1.406607930999999923e+00
3.870000000000000284e+01,4.748460736000000182e+00,1.362732797000000051e+00
3.889999999999999858e+01,4.676010406999999702e+00,1.205741444999999912e+00
3.910000000000000142e+01,4.538930138999999642e+00,1.345113714000000016e+00
3.929999999999999716e+01,7.965235405999999685e+00,1.961412858999999953e+00
3.950000000000000000e+01,6.790563702000000035e+00,2.225882216000000025e+00
3.970000000000000284e+01,4.542937711000000434e+00,1.722208267000000070e+00
3.989999999999999858e+01,6.857550793999999783e+00,1.726380604000000041e+00
4.010000000000000142e+01,1.087692483000000010e+01,2.254503877999999961e+00
4.029999999999999716e+01,7.602875509000000420e+00,1.749386992999999890e+00
4.050000000000000000e+01,7.391548049999999925e+00,1.842538430999999921e+00
4.070000000000000284e+01,1.777671713999999881e+01,3.607082285999999804e+00
4.089999999999999858e+01,1.322171488000000039e+01,3.029593740000000146e+00
4.110000000000000142e+01,1.837883109999999931e+01,3.870130851999999955e+00
4.129999999999999716e+01,1.412242724999999943e+01,3.264594038999999892e+00
4.150000000000000000e+01,2.142631958999999853e+01,3.962542031999999992e+00
4.170000000000000284e+01,2.250905050000000074e+01,4.170467848000000366e+00
4.189999999999999858e+01,2.197062963000000124e+01,4.211571370999999786e+00
4.210000000000000142e+01,2.554211886999999948e+01,4.191225087000000293e+00
4.229999999999999716e+01,2.419051324999999864e+01,4.290009653000000256e+00
4.250000000000000000e+01,2.268362670000000136e+01,4.041225932999999770e+00
4.270000000000000284e+01,2.483677648000000104e+01,4.440709671999999664e+00
4.289999999999999858e+01,2.751606522000000155e+01,4.749712359000000106e+00
4.310000000000000142e+01,1.670214681999999939e+01,3.217868049999999869e+00
4.329999999999999716e+01,1.268677826000000053e+01,2.714192086999999809e+00
4.350000000000000000e+01,1.850815512000000140e+01,3.975150693999999874e+00
4.370000000000000284e+01,1.387542400000000065e+01,2.890292473999999778e+00
4.389999999999999858e+01,9.552615120000000459e+00,2.285438601000000070e+00
4.410000000000000142e+01,9.599047829999999948e+00,2.185627560999999996e+00
4.429999999999999716e+01,9.438392931999999291e+00,2.396543942000000094e+00
4.450000000000000000e+01,7.715270552999999865e+00,1.796038911999999987e+00
4.470000000000000284e+01,1.345596298000000068e+01,2.705840429000000213e+00
4.489999999999999858e+01,1.260562778999999978e+01,2.295892582000000015e+00
4.510000000000000142e+01,1.007765157999999950e+01,2.140680825000000009e+00
4.529999999999999716e+01,1.408675032999999921e+01,2.630128478000000047e+00
4.550000000000000000e+01,1.197944155000000066e+01,2.339754274000000134e+00
4.570000000000000284e+01,7.573855495000000104e+00,1.848052610999999956e+00
4.589999999999999858e+01,1.204193650000000027e+01,2.313829151000000195e+00
4.610000000000000142e+01,1.089211234999999967e+01,2.200994597000000219e+00
4.629999999999999716e+01,1.486434455000000021e+01,2.515772387999999804e+00
4.650000000000000000e+01,1.554943875000000020e+01,2.660235676000000105e+00
4.670000000000000284e+01,1.440257251999999966e+01,2.492848485000000114e+00
4.689999999999999858e+01,1.131004874999999998e+01,2.252740682999999855e+00
4.710000000000000142e+01,1.220552939000000059e+01,2.375877905999999928e+00
4.729999999999999716e+01,9.434462772999999913e+00,2.052464978000000162e+00
4.750000000000000000e+01,1.331224828999999943e+01,2.478393441999999780e+00
4.770000000000000284e+01,9.891986697000000106e+00,2.096780970999999827e+00
4.789999999999999858e+01,7.399881376999999816e+00,1.634589239999999943e+00
4.810000000000000142e+01,8.197787454000000196e+00,1.818351781999999917e+00
4.829999999999999716e+01,1.437723704999999974e+01,2.554934863999999806e+00
4.850000000000000000e+01,8.680512158000000866e+00,1.917489642999999910e+00
4.870000000000000284e+01,9.567765892000000605e+00,2.094368123000000192e+00
4.889999999999999858e+01,7.716308745000000080e+00,1.624670443999999936e+00
4.910000000000000142e+01,7.940987828999999998e+00,1.680717580000000044e+00
4.929999999999999716e+01,1.149714254000000047e+01,2.405977485000000193e+00
4.950000000000000000e+01,6.936060270999999666e+00,1.858928665000000091e+00
4.970000000000000284e+01,1.460330710999999937e+01,2.431814858000000079e+00
4.989999999999999858e+01,7.638432779999999589e+00,1.874097515999999963e+00
5.010000000000000142e+01,7.125004673000000288e+00,1.580641946999999936e+00
5.029999999999999716e+01,1.254161485999999925e+01,2.259626690000000160e+00
5.050000000000000000e+01,1.252034654999999930e+01,2.209421630000000025e+00
5.070000000000000284e+01,1.312254637999999929e+01,2.230370583000000018e+00
5.089999999999999858e+01,1.760341799000000051e+01,2.809067476000000063e+00
5.110000000000000142e+01,1.569655342000000076e+01,2.914746436999999801e+00
5.129999999999999716e+01,1.932710744999999974e+01,3.106100088999999898e+00
5.150000000000000000e+01,1.305177791999999926e+01,2.151290382000000001e+00
5.170000000000000284e+01,1.846320118999999949e+01,3.106629036999999816e+00
5.189999999999999858e+01,1.372699543000000055e+01,2.461978923999999846e+00
5.210000000000000142e+01,1.386673028000000052e+01,2.741987420000000064e+00
5.229999999999999716e+01,1.493230422000000068e+01,2.934620639999999892e+00
5.250000000000000000e+01,1.460656516000000060e+01,3.028162256999999968e+00
5.270000000000000284e+01,1.210039362999999923e+01,2.243914698999999846e+00
5.289999999999999858e+01,1.942867877999999848e+01,3.408432891999999992e+00
5.310000000000000142e+01,1.645142977000000073e+01,3.176216127000000000e+00
5.329999999999999716e+01,1.372851117999999992e+01,2.622837404999999844e+00
5.350000000000000000e+01,1.304685287999999943e+01,3.108884804000000113e+00
5.370000000000000284e+01,1.746647138000000155e+01,3.298440237999999969e+00
5.389999999999999858e+01,1.265524154000000046e+01,2.714317272999999808e+00
5.410000000000000142e+01,1.141119609000000068e+01,2.574546440999999852e+00
5.429999999999999716e+01,1.400046391000000057e+01,2.857369117000000180e+00
5.450000000000000000e+01,2.009906463000000088e+01,3.640250616999999966e+00
5.470000000000000284e+01,1.785251421999999977e+01,3.563502366999999893e+00
5.489999999999999858e+01,2.048536612999999917e+01,3.867284822999999871e+00
5.510000000000000142e+01,1.641625545000000130e+01,3.447926680000000133e+00
5.529999999999999716e+01,9.938120487000000836e+00,2.858583272000000175e+00
5.550000000000000000e+01,1.617892807999999860e+01,3.305184606000000080e+00
5.570000000000000284e+01,2.448915617999999839e+01,4.154700855999999831e+00
5.589999999999999858e+01,1.255514419000000004e+01,2.915324302999999784e+00
5.610000000000000142e+01,1.548196942999999948e+01,3.434101823000000220e+00
5.629999999999999716e+01,1.314547881000000018e+01,2.984920316000000184e+00
5.650000000000000000e+01,1.544761405999999937e+01,3.151617594000000189e+00
5.670000000000000284e+01,1.451980632999999976e+01,2.939578544999999821e+00
5.689999999999999858e+01,1.012029457000000043e+01,2.463674249999999954e+00
5.710000000000000142e+01,1.183548064000000011e+01,2.619030169999999824e+00
5.729999999999999716e+01,9.122222289999999845e+00,2.069442800000000027e+00
5.750000000000000000e+01,1.053355846000000007e+01,2.330870643999999992e+00
5.770000000000000284e+01,9.586588692999999495e+00,2.009043876999999867e+00
5.789999999999999858e+01,1.014291021000000015e+01,2.302580691999999818e+00
5.810000000000000142e+01,8.643955770999999899e+00,1.651324438999999922e+00
5.829999999999999716e+01,1.069297223999999957e+01,2.279983525000000011e+00
5.850000000000000000e+01,1.205718217000000081e+01,2.372485869000000136e+00
5.870000000000000284e+01,1.140154103999999968e+01,2.015747232999999916e+00
5.889999999999999858e+01,8.209193646999999316e+00,1.607822104999999890e+00
5.910000000000000142e+01,5.747755430999999859e+00,1.363228416000000109e+00
5.929999999999999716e+01,1.050732228999999940e+01,1.832843409000000090e+00
5.950000000000000000e+01,1.123688733000000006e+01,1.997905384999999923e+00
5.970000000000000284e+01,1.068594459999999913e+01,2.004692867999999795e+00
5.989999999999999858e+01,1.230450903000000018e+01,1.972760878000000107e+00
6.010000000000000142e+01,1.249517643999999983e+01,2.244031429000000077e+00
6.029999999999999716e+01,1.361435943999999942e+01,2.325098650999999794e+00
6.050000000000000000e+01,1.004337714999999953e+01,1.972300160999999941e+00
6.070000000000000284e+01,1.179493861999999993e+01,2.060579165000000046e+00
6.089999999999999858e+01,1.183338879000000077e+01,2.102486755999999790e+00
6.110000000000000142e+01,1.749428806999999964e+01,2.669017988999999869e+00
6.129999999999999716e+01,1.038260745000000007e+01,2.069136266000000113e+00
6.150000000000000000e+01,1.521101606999999944e+01,2.528860721000000034e+00
6.170000000000000284e+01,1.205454268999999989e+01,2.191852126000000123e+00
6.189999999999999858e+01,1.414615002000000032e+01,2.553940325000000122e+00
6.210000000000000142e+01,1.911999417999999906e+01,3.130459085000000030e+00
6.229999999999999716e+01,1.955338495999999893e+01,3.274538482000000084e+00
6.250000000000000000e+01,1.310615160999999951e+01,2.452938601000000052e+00
6.270000000000000284e+01,1.179145345000000056e+01,2.173197827000000082e+00
6.289999999999999858e+01,1.555794631000000017e+01,2.697556913000000112e+00
6.310000000000000142e+01,1.727266535000000047e+01,3.104015642999999880e+00
6.329999999999999716e+01,1.369964202000000064e+01,2.540607571999999870e+00
6.350000000000000000e+01,1.290462171000000069e+01,2.196542183000000037e+00
6.370000000000000284e+01,1.211832086000000075e+01,2.495934011000000119e+00
6.389999999999999858e+01,1.561358762000000056e+01,2.801681904000000056e+00
6.409999999999999432e+01,1.221497470999999990e+01,2.149015551000000190e+00
6.429999999999999716e+01,1.728291593999999876e+01,3.006591521999999905e+00
6.450000000000000000e+01,1.129976055000000024e+01,2.184378624999999907e+00
6.470000000000000284e+01,1.760545726000000144e+01,3.056881086000000192e+00
6.490000000000000568e+01,7.623980796999999754e+00,1.669362715999999969e+00
6.509999999999999432e+01,1.355556544000000052e+01,2.680233444000000187e+00
6.529999999999999716e+01,1.420213807000000017e+01,2.641337260999999881e+00
6.550000000000000000e+01,1.407282118000000004e+01,2.601706480999999904e+00
6.570000000000000284e+01,1.488655737999999928e+01,2.655904086000000053e+00
6.590000000000000568e+01,1.490462592000000086e+01,2.617771249000000022e+00
6.609999999999999432e+01,1.168410865000000065e+01,2.327267088999999789e+00
6.629999999999999716e+01,1.892995588999999867e+01,3.226451981999999941e+00
6.650000000000000000e+01,1.622034397999999911e+01,2.906733881000000075e+00
6.670000000000000284e+01,1.538774195000000056e+01,2.891740201999999815e+00
6.690000000000000568e+01,1.564354967999999957e+01,2.815935613999999809e+00
6.709999999999999432e+01,1.433230615000000086e+01,2.570420384000000169e+00
6.729999999999999716e+01,1.708346055999999891e+01,3.233894621000000136e+00
6.750000000000000000e+01,1.293959833000000081e+01,2.741086999999999829e+00
6.770000000000000284e+01,1.601385601000000136e+01,3.006903968000000038e+00
6.790000000000000568e+01,1.586414554000000088e+01,2.858656948000000142e+00
6.809999999999999432e+01,1.084794620000000087e+01,2.437279933000000121e+00
6.829999999999999716e+01,1.389015481999999935e+01,2.856562197000000136e+00
6.850000000000000000e+01,1.645369671999999994e+01,2.872082161999999883e+00
6.870000000000000284e+01,1.155172476000000081e+01,2.623717687000000076e+00
6.890000000000000568e+01,1.356345997999999931e+01,2.386377931000000174e+00
6.909999999999999432e+01,9.000363095999999175e+00,2.319299962000000104e+00
6.929999999999999716e+01,9.704882794999999618e+00,2.189985926999999943e+00
6.950000000000000000e+01,1.361828898999999993e+01,2.686564016999999804e+00
6.970000000000000284e+01,8.928052576000000684e+00,2.082548253000000127e+00
6.990000000000000568e+01,1.122916589999999992e+01,2.325910513999999818e+00
7.009999999999999432e+01,1.300150516000000067e+01,2.876975326999999805e+00
7.029999999999999716e+01,1.020329656000000007e+01,2.403286516000000095e+00
7.050000000000000000e+01,8.301678596000000354e+00,2.051956386000000077e+00
7.070000000000000284e+01,1.132924279000000034e+01,2.754243375999999799e+00
7.090000000000000568e+01,7.659121590999999896e+00,2.057434790999999930e+00
7.109999999999999432e+01,1.014601041999999964e+01,2.368275700999999955e+00
7.129999999999999716e+01,5.879454359000000352e+00,1.739273787999999987e+00
7.150000000000000000e+01,8.700282999000000572e+00,2.181730588000000193e+00
7.170000000000000284e+01,5.450532918000000393e+00,1.795927207000000081e+00
7.190000000000000568e+01,6.171485833000000198e+00,1.797465529999999978e+00
7.209999999999999432e+01,5.039750006000000226e+00,1.494171364000000057e+00
7.229999999999999716e+01,4.742376645000000224e+00,1.722508184000000053e+00
7.250000000000000000e+01,6.144775004999999624e+00,1.507551854999999996e+00
7.270000000000000284e+01,4.953829405999999658e+00,1.487914441999999893e+00
7.290000000000000568e+01,4.370106145000000275e+00,1.311780326000000052e+00
7.309999999999999432e+01,4.738321757999999662e+00,1.630635277999999966e+00
7.329999999999999716e+01,1.798337319999999906e+00,8.017594770000000537e-01
7.350000000000000000e+01,2.639599490000000159e+00,8.114632828000000186e-01
7.370000000000000284e+01,4.262021611999999848e+00,1.329292739000000001e+00
7.390000000000000568e+01,2.166368241999999888e+00,7.972724665999999516e-01
7.409999999999999432e+01,1.476267935999999947e+00,6.651627263999999595e-01
7.429999999999999716e+01,2.552264887000000204e+00,1.066476857999999917e+00
7.450000000000000000e+01,1.720617427000000088e+00,7.154182893999999626e-01
7.470000000000000284e+01,2.380031128000000162e+00,8.328638060999999926e-01
7.490000000000000568e+01,1.262493410000000038e+00,6.806355284999999755e-01
7.509999999999999432e+01,5.537305683000000034e-01,4.429923386999999879e-01
7.529999999999999716e+01,1.602395368999999903e+00,8.167257079999999947e-01
7.550000000000000000e+01,1.264994504999999991e+00,7.853527231000000386e-01
7.570000000000000284e+01,2.345479646999999890e+00,1.116386893000000047e+00
7.590000000000000568e+01,7.239589708000000456e-01,4.271205980000000180e-01
7.609999999999999432e+01,1.224546212999999995e+00,7.439201783000000123e-01
7.629999999999999716e+01,5.984556000999999847e-01,4.743601484000000146e-01
7.650000000000000000e+01,2.334399539000000079e+00,1.037867043000000100e+00
7.670000000000000284e+01,1.727887361999999871e-01,1.246685426999999957e-01
7.690000000000000568e+01,3.096081668999999814e-01,3.096081668999999814e-01
7.709999999999999432e+01,6.461440962000000177e-01,4.565890692999999834e-01
7.729999999999999716e+01,9.472983597999999894e-01,5.671331628000000347e-01
7.750000000000000000e+01,9.342088141000000068e-01,7.884194216000000033e-01
7.770000000000000284e+01,4.648508906999999912e-02,3.561763495999999835e-02
7.790000000000000568e+01,8.368022581999999820e-01,8.368022581999999820e-01
7.809999999999999432e+01,2.201436084999999852e-03,2.201436084999999852e-03
7.829999999999999716e+01,2.546288763999999833e-03,2.546288763999999833e-03
7.850000000000000000e+01,3.314701680000000095e-01,3.402937905000000263e-01
7.870000000000000284e+01,8.345708333000000367e-01,7.490928944000000422e-01
7.890000000000000568e+01,2.321978952999999984e-02,2.748470286999999887e-02
7.909999999999999432e+01,1.667782737999999876e-01,1.512306113000000118e-01
7.929999999999999716e+01,2.152649513000000001e-02,1.958384108000000082e-02
7.950000000000000000e+01,1.600504235999999914e-02,1.794860729000000155e-02
7.970000000000000284e+01,5.779538623000000409e-04,5.779538623000000409e-04
7.990000000000000568e+01,7.166587818999999859e-01,8.765925613999999699e-01
8.009999999999999432e+01,2.912864004000000062e-02,2.912864004000000062e-02
8.029999999999999716e+01,2.146184127000000108e-01,2.035305022999999991e-01
8.050000000000000000e+01,5.691102869999999786e-02,4.333413500999999668e-02
8.070000000000000284e+01,3.076465856000000151e-02,3.241805435999999679e-02
8.090000000000000568e+01,3.206219643000000064e-01,3.917508289000000143e-01
8.109999999999999432e+01,4.567607502000000097e-01,5.470811134999999936e-01
8.129999999999999716e+01,1.015914658000000026e-02,8.020233493000000075e-03
8.150000000000000000e+01,1.163487585000000032e-02,8.587584610999999396e-03
8.170000000000000284e+01,0.000000000000000000e+00,0.000000000000000000e+00
8.190000000000000568e+01,0.000000000000000000e+00,0.000000000000000000e+00
8.209999999999999432e+01,3.429797028000000081e-01,3.233021262999999923e-01
8.229999999999999716e+01,6.215619162000000225e-02,3.102618081000000153e-02
8.250000000000000000e+01,2.304953968999999808e-03,2.304953968999999808e-03
8.270000000000000284e+01,1.239015440000000134e-04,1.239015440000000134e-04
8.290000000000000568e+01,1.436741802000000012e+00,1.451465125999999994e+00
8.309999999999999432e+01,5.829821006999999977e-04,5.829821006999999977e-04
8.329999999999999716e+01,0.000000000000000000e+00,0.000000000000000000e+00
8.350000000000000000e+01,3.209636449999999806e-04,3.209636449999999806e-04
8.370000000000000284e+01,7.612608428000000593e-02,6.335203099000000226e-02
8.390000000000000568e+01,4.782402559999999747e-01,5.182176601000000327e-01
8.409999999999999432e+01,5.305469577999999826e-05,5.305469577999999826e-05
8.429999999999999716e+01,2.794532695999999983e-01,3.115121921999999821e-01
8.450000000000000000e+01,0.000000000000000000e+00,0.000000000000000000e+00
8.470000000000000284e+01,3.610449251999999776e-01,3.732695039999999742e-01
8.490000000000000568e+01,5.012980555999999727e-03,5.012980555999999727e-03
8.509999999999999432e+01,4.252131205000000275e-02,3.265519436000000053e-02
8.529999999999999716e+01,2.414968652999999854e+00,2.177789391000000130e+00
8.550000000000000000e+01,1.559514705000000084e-02,1.559514705000000084e-02
8.570000000000000284e+01,5.232098428999999717e-02,4.936671917999999742e-02
8.590000000000000568e+01,2.362554484000000126e-04,2.362554484000000126e-04
8.609999999999999432e+01,1.380782668000000036e-03,1.445252753999999975e-03
8.629999999999999716e+01,2.817790079000000170e-02,2.270560146999999959e-02
8.650000000000000000e+01,3.251938793999999827e-02,2.489582171999999913e-02
8.670000000000000284e+01,4.427124684999999838e-05,4.427124684999999838e-05
8.690000000000000568e+01,2.851426565999999954e-02,3.161858755000000049e-02
8.709999999999999432e+01,8.898962889999999758e-04,8.898962889999999758e-04
8.729999999999999716e+01,3.158977803000000140e-02,3.783784158000000342e-02
8.750000000000000000e+01,0.000000000000000000e+00,0.000000000000000000e+00
8.770000000000000284e+01,6.976529375999999949e-02,4.365064787000000335e-02
8.790000000000000568e+01,5.746255502999999751e-03,5.746255502999999751e-03
8.809999999999999432e+01,5.412158663999999675e-01,6.245437890999999686e-01
8.829999999999999716e+01,1.033154014000000048e-03,1.216637623999999905e-03
8.850000000000000000e+01,3.034013083999999999e-02,2.898748859999999983e-02
8.870000000000000284e+01,7.144829864000000474e-02,5.649415811999999870e-02
8.890000000000000568e+01,2.734883709000000135e-02,3.338208775999999822e-02
8.909999999999999432e+01,1.735803707999999945e-02,1.735803707999999945e-02
8.929999999999999716e+01,0.000000000000000000e+00,0.000000000000000000e+00
8.950000000000000000e+01,1.664447338000000012e-02,1.810566520999999998e-02
8.970000000000000284e+01,1.610724892000000089e-02,1.874146795000000004e-02
8.990000000000000568e+01,3.368734621999999734e-01,3.396662189999999915e-01
9.009999999999999432e+01,5.601543228000000450e-04,4.532266659000000041e-04
9.029999999999999716e+01,1.312055215999999996e-02,1.584349436000000166e-02
9.050000000000000000e+01,3.685629281000000340e-02,3.696027614999999877e-02
9.070000000000000284e+01,2.335889566000000014e-02,1.727143726999999865e-02
9.090000000000000568e+01,1.814486304000000050e-01,1.554948549000000069e-01
9.109999999999999432e+01,0.000000000000000000e+00,0.000000000000000000e+00
9.129999999999999716e+01,1.032081521000000057e-02,1.032081521000000057e-02
9.150000000000000000e+01,5.442623024999999849e-05,5.442623024999999849e-05
9.170000000000000284e+01,3.376788459999999908e-02,2.560255821999999834e-02
9.190000000000000568e+01,6.011819041999999676e-03,6.011819041999999676e-03
9.209999999999999432e+01,3.847027802999999913e-01,4.351726906999999755e-01
9.229999999999999716e+01,1.814554777999999868e-01,2.075405934000000008e-01
9.250000000000000000e+01,0.000000000000000000e+00,0.000000000000000000e+00
9.270000000000000284e+01,1.281597971000000002e-01,1.373852157999999879e-01
9.290000000000000568e+01,2.528579275000000098e-02,2.678107251000000008e-02
9.309999999999999432e+01,1.578376609000000166e-02,1.932918192000000063e-02
9.329999999999999716e+01,8.241369805000000378e-04,8.741489641999999460e-04
9.350000000000000000e+01,0.000000000000000000e+00,0.000000000000000000e+00
9.370000000000000284e+01,1.699143323999999927e-02,1.699143323999999927e-02
9.390000000000000568e+01,1.957312527999999913e-02,2.277607759999999981e-02
9.409999999999999432e+01,3.469990445000000010e-03,3.159254344000000155e-03
9.429999999999999716e+01,1.386425598999999932e-02,1.148937057999999990e-02
9.450000000000000000e+01,0.000000000000000000e+00,0.000000000000000000e+00
9.470000000000000284e+01,2.357741086999999927e-04,2.357741086999999927e-04
9.490000000000000568e+01,2.155967200999999930e-02,1.877767976999999977e-02
9.509999999999999432e+01,2.748001841000000112e-02,2.748001841000000112e-02
9.529999999999999716e+01,3.085001011999999876e-01,3.461808371000000273e-01
9.550000000000000000e+01,3.109036705000000136e-02,2.884874578000000064e-02
9.570000000000000284e+01,1.386116930000000011e-02,1.697214903000000136e-02
9.590000000000000568e+01,0.000000000000000000e+00,0.000000000000000000e+00
9.609999999999999432e+01,8.820072192999999644e-03,8.820072192999999644e-03
9.629999999999999716e+01,1.085807911999999917e-02,1.325225598999999962e-02
9.650000000000000000e+01,1.443223862999999940e-01,1.749401368999999873e-01
9.670000000000000284e+01,2.107690264999999979e-02,2.051978646999999892e-02
9.690000000000000568e+01,6.596694761999999379e-02,7.404498238999999982e-02
9.709999999999999432e+01,3.215945293999999954e-01,3.122504759999999990e-01
9.729999999999999716e+01,9.181037967999999827e-02,1.123557889999999976e-01
9.750000000000000000e+01,1.520186341000000045e-02,1.825320387999999905e-02
9.770000000000000284e+01,2.152661848999999974e-02,2.631845074999999978e-02
9.790000000000000568e+01,5.443397532999999511e-01,5.674913235999999861e-01
9.809999999999999432e+01,0.000000000000000000e+00,0.000000000000000000e+00
9.829999999999999716e+01,0.000000000000000000e+00,0.000000000000000000e+00
9.850000000000000000e+01,6.162098609000000310e-02,4.449351287000000155e-02
9.870000000000000284e+01,6.292753035000000494e-01,6.313257633000000091e-01
9.890000000000000568e+01,1.389276436000000045e-02,1.389276436000000045e-02
9.909999999999999432e+01,2.537273469999999920e-01,2.639715643000000167e-01
9.929999999999999716e+01,1.228195363999999914e-02,1.502561261000000085e-02
9.950000000000000000e+01,7.878460980999999475e-01,6.250011904000000174e-01
9.970000000000000284e+01,3.611669856999999983e-01,3.611669856999999983e-01
9.990000000000000568e+01,0.000000000000000000e+00,0.000000000000000000e+00
