x_axis,Intensity,Error
1.009999999999999964e+01,2.230118256000000088e+01,2.870868520999999784e+00
1.030000000000000071e+01,2.909344787999999937e+01,3.247822745000000122e+00
1.050000000000000000e+01,2.235686697999999950e+01,2.865123865000000158e+00
1.069999999999999929e+01,2.748299718000000169e+01,3.254120692999999953e+00
1.090000000000000036e+01,2.995992594999999881e+01,3.205911425000000037e+00
1.109999999999999964e+01,2.826698410999999922e+01,3.198423519999999964e+00
1.130000000000000071e+01,2.388376003000000125e+01,2.934420524000000086e+00
1.150000000000000000e+01,3.031355832999999933e+01,3.379137662999999847e+00
1.169999999999999929e+01,3.294113463000000053e+01,3.780269806000000177e+00
1.190000000000000036e+01,2.612204875000000115e+01,3.078253252000000106e+00
1.209999999999999964e+01,2.359040068999999917e+01,2.809714324000000207e+00
1.230000000000000071e+01,2.334416000999999952e+01,2.913718461000000204e+00
1.250000000000000000e+01,2.961527213000000103e+01,3.334158026999999969e+00
1.269999999999999929e+01,3.250229960000000062e+01,3.566444516999999870e+00
1.290000000000000036e+01,3.086745481000000169e+01,3.430890601000000206e+00
1.309999999999999964e+01,3.270858837000000108e+01,3.484039291000000205e+00
1.330000000000000071e+01,3.017205612000000059e+01,3.271643305000000002e+00
1.350000000000000000e+01,3.579552684000000085e+01,3.727950272999999815e+00
1.369999999999999929e+01,3.290621758999999713e+01,3.498166902999999994e+00
1.390000000000000036e+01,3.091733560999999852e+01,3.298521590000000003e+00
1.409999999999999964e+01,3.269119355000000127e+01,3.718271344000000145e+00
1.430000000000000071e+01,2.845708832000000044e+01,3.200000254999999960e+00
1.450000000000000000e+01,3.407691980999999970e+01,3.539969628000000146e+00
1.469999999999999929e+01,3.051977340999999910e+01,3.289655762000000205e+00
1.490000000000000036e+01,3.264189766999999875e+01,3.480915662000000133e+00
1.509999999999999964e+01,3.342815539000000058e+01,3.549149054999999997e+00
1.530000000000000071e+01,3.679745797999999724e+01,3.822002696999999838e+00
1.550000000000000000e+01,3.350613530999999767e+01,3.823431658000000066e+00
1.569999999999999929e+01,3.507366211000000078e+01,3.722449861999999943e+00
1.590000000000000036e+01,3.042331317000000013e+01,3.247994740999999852e+00
1.610000000000000142e+01,2.975963000000000136e+01,3.251482683999999956e+00
1.630000000000000071e+01,3.776308281000000022e+01,3.693317721000000109e+00
1.650000000000000000e+01,3.965681411999999995e+01,3.976040143000000082e+00
1.669999999999999929e+01,2.930329005000000109e+01,3.205082691999999955e+00
1.689999999999999858e+01,3.637854487999999975e+01,3.773061977999999872e+00
1.710000000000000142e+01,4.121064572000000226e+01,3.899523241999999890e+00
1.730000000000000071e+01,3.120446787999999927e+01,3.289652911000000124e+00
1.750000000000000000e+01,4.298724607999999847e+01,3.941382931000000145e+00
1.769999999999999929e+01,3.445127107999999794e+01,3.522787440000000103e+00
1.789999999999999858e+01,3.454264481999999958e+01,3.712127568000000100e+00
1.810000000000000142e+01,3.476805355999999847e+01,3.691915058000000194e+00
1.830000000000000071e+01,3.025116060999999945e+01,3.269211004999999837e+00
1.850000000000000000e+01,3.784726962999999955e+01,3.812671471999999895e+00
1.869999999999999929e+01,3.463867745999999670e+01,3.626599510000000137e+00
1.889999999999999858e+01,4.157687929000000082e+01,3.997153704000000030e+00
1.910000000000000142e+01,3.741912399000000278e+01,3.819474581999999785e+00
1.930000000000000071e+01,3.995426464999999894e+01,3.900406902999999925e+00
1.950000000000000000e+01,3.571060448000000065e+01,3.771557425000000130e+00
1.969999999999999929e+01,3.231715789999999799e+01,3.388205152999999914e+00
1.989999999999999858e+01,3.057437029000000095e+01,3.275488757000000195e+00
2.010000000000000142e+01,3.694855651000000307e+01,3.644470016000000090e+00
2.030000000000000071e+01,3.672139889999999696e+01,3.678102038000000018e+00
2.050000000000000000e+01,3.828653850999999975e+01,3.847901853000000205e+00
2.069999999999999929e+01,4.093780318000000307e+01,3.825320419000000083e+00
2.089999999999999858e+01,4.041963726000000179e+01,3.798978475999999826e+00
2.110000000000000142e+01,3.529590600000000222e+01,3.532127953999999903e+00
2.130000000000000071e+01,4.364866912000000099e+01,4.017452381000000017e+00
2.150000000000000000e+01,3.364762970999999681e+01,3.505668464999999845e+00
2.169999999999999929e+01,3.941255876000000313e+01,3.875993267000000131e+00
2.189999999999999858e+01,4.054104114999999808e+01,3.934974910000000214e+00
2.210000000000000142e+01,3.730896451000000269e+01,3.680335831999999918e+00
2.230000000000000071e+01,4.001183662999999768e+01,3.793231320999999934e+00
2.250000000000000000e+01,3.972535269000000113e+01,3.740707661000000073e+00
2.269999999999999929e+01,4.388695580000000263e+01,3.936721835000000169e+00
2.289999999999999858e+01,4.356399844999999971e+01,4.045820873000000262e+00
2.310000000000000142e+01,4.681488141999999897e+01,4.122857740999999798e+00
2.330000000000000071e+01,5.520247817999999995e+01,4.530189413000000442e+00
2.350000000000000000e+01,5.728399587999999909e+01,4.689525757000000183e+00
2.369999999999999929e+01,8.685027771000000030e+01,5.956316802999999993e+00
2.389999999999999858e+01,1.137730423000000002e+02,7.045807869999999973e+00
2.410000000000000142e+01,1.324989769000000024e+02,7.854623594999999625e+00
2.430000000000000071e+01,1.355373562000000049e+02,7.840371240999999713e+00
2.450000000000000000e+01,1.077114571999999981e+02,6.827220324999999868e+00
2.469999999999999929e+01,8.667179065999999921e+01,5.868957009999999919e+00
2.489999999999999858e+01,5.870437722999999863e+01,4.574085654000000112e+00
2.510000000000000142e+01,5.038056592000000222e+01,4.423239818999999962e+00
2.530000000000000071e+01,4.616092023000000211e+01,4.150901417000000038e+00
2.550000000000000000e+01,4.711237574999999822e+01,4.223268692000000435e+00
2.569999999999999929e+01,4.518455754000000013e+01,4.120015619000000129e+00
2.589999999999999858e+01,3.932957051999999720e+01,3.749479152000000148e+00
2.610000000000000142e+01,4.397440175999999923e+01,4.009312968999999782e+00
2.630000000000000071e+01,5.087574799000000070e+01,4.411105900999999996e+00
2.650000000000000000e+01,4.489414809000000162e+01,4.113839218999999936e+00
2.669999999999999929e+01,5.266148685000000285e+01,4.366013349000000154e+00
2.689999999999999858e+01,4.332509981999999837e+01,3.916143831999999936e+00
2.710000000000000142e+01,5.309684455000000014e+01,4.241794899000000285e+00
2.730000000000000071e+01,5.656841632999999803e+01,4.375377590000000261e+00
2.750000000000000000e+01,7.193920138000000009e+01,4.850873241999999586e+00
2.769999999999999929e+01,7.492986813999999640e+01,4.990812768999999705e+00
2.789999999999999858e+01,9.454403670000000659e+01,5.828396739999999632e+00
2.810000000000000142e+01,1.057004500999999976e+02,6.088744682999999824e+00
2.830000000000000071e+01,8.171700400999999658e+01,5.268996575000000071e+00
2.850000000000000000e+01,8.332570377999999778e+01,5.337471923999999923e+00
2.869999999999999929e+01,6.242603651000000298e+01,4.632941484999999915e+00
2.889999999999999858e+01,5.338979176000000137e+01,4.409596022999999754e+00
2.910000000000000142e+01,5.159969002999999788e+01,4.437880522000000383e+00
2.930000000000000071e+01,5.462901744999999920e+01,4.728388741999999922e+00
2.950000000000000000e+01,4.910747379000000024e+01,4.244089527999999945e+00
2.969999999999999929e+01,4.823252588999999801e+01,4.074892594999999673e+00
2.989999999999999858e+01,5.992431115000000119e+01,4.756229641000000008e+00
3.010000000000000142e+01,5.245481971000000243e+01,4.349586932000000239e+00
3.030000000000000071e+01,4.696319915000000123e+01,4.140333251000000381e+00
3.050000000000000000e+01,5.215449642000000097e+01,4.285304308999999812e+00
3.069999999999999929e+01,4.396035735000000244e+01,4.183592757999999634e+00
3.089999999999999858e+01,4.783620084999999733e+01,4.196368858999999674e+00
3.110000000000000142e+01,5.279128221999999937e+01,4.438732063999999866e+00
3.130000000000000071e+01,5.188947257000000235e+01,4.472565398000000414e+00
3.150000000000000000e+01,4.939584673000000237e+01,4.333319952000000086e+00
3.169999999999999929e+01,4.803273080999999678e+01,4.249249062999999715e+00
3.189999999999999858e+01,5.019837468000000058e+01,4.244162597999999953e+00
3.210000000000000142e+01,5.265582186000000320e+01,4.534918926999999655e+00
3.229999999999999716e+01,6.092847181999999862e+01,4.849242048999999888e+00
3.250000000000000000e+01,5.439584639000000266e+01,4.642088519999999718e+00
3.270000000000000284e+01,5.491777052999999853e+01,4.594124150999999934e+00
3.289999999999999858e+01,4.918532797999999673e+01,4.289155732000000221e+00
3.310000000000000142e+01,5.681226348999999942e+01,4.584093023000000322e+00
3.329999999999999716e+01,4.390584873000000243e+01,4.006079193999999788e+00
3.350000000000000000e+01,6.123053335000000175e+01,4.854624717000000089e+00
3.370000000000000284e+01,5.254435907999999955e+01,4.375194082000000151e+00
3.389999999999999858e+01,4.413479792999999773e+01,3.950473897000000179e+00
3.410000000000000142e+01,6.227750213000000201e+01,4.787277909000000164e+00
3.429999999999999716e+01,6.639410386000000130e+01,4.894722653999999729e+00
3.450000000000000000e+01,4.839816923000000060e+01,4.273166832000000248e+00
3.470000000000000284e+01,5.366888816000000162e+01,4.583108228999999589e+00
3.489999999999999858e+01,4.750727797999999780e+01,4.197481170999999733e+00
3.510000000000000142e+01,5.987239988000000324e+01,4.714192452999999894e+00
3.529999999999999716e+01,5.915024068000000312e+01,4.705709629000000227e+00
3.550000000000000000e+01,5.774461815000000087e+01,4.606520238999999961e+00
3.570000000000000284e+01,5.017844205000000102e+01,4.288293480000000102e+00
3.589999999999999858e+01,5.486555702999999795e+01,4.433266711999999998e+00
3.610000000000000142e+01,5.789937652999999784e+01,4.551489798999999614e+00
3.629999999999999716e+01,5.397505283000000276e+01,4.564359875000000066e+00
3.650000000000000000e+01,6.125453003999999879e+01,4.824852685999999835e+00
3.670000000000000284e+01,6.201444467000000316e+01,4.898031974000000233e+00
3.689999999999999858e+01,5.461752601999999968e+01,4.499053124999999653e+00
3.710000000000000142e+01,5.476606328999999818e+01,4.483999819000000109e+00
3.729999999999999716e+01,6.087228712000000286e+01,4.693098770999999836e+00
3.750000000000000000e+01,5.486349301999999994e+01,4.560999319999999635e+00
3.770000000000000284e+01,6.038255816000000209e+01,4.855660820999999849e+00
3.789999999999999858e+01,6.171195791000000241e+01,4.970223831000000203e+00
3.810000000000000142e+01,5.913207960999999813e+01,4.748434714000000056e+00
3.829999999999999716e+01,5.753851187000000067e+01,4.607020015999999885e+00
3.850000000000000000e+01,6.159526736000000113e+01,4.708279092999999804e+00
3.870000000000000284e+01,6.903018860000000245e+01,5.152739283999999920e+00
3.889999999999999858e+01,7.040293907999999590e+01,5.013262862999999570e+00
3.910000000000000142e+01,6.703468218999999806e+01,4.935734524999999984e+00
3.929999999999999716e+01,6.945700406999999643e+01,5.069469677999999924e+00
3.950000000000000000e+01,7.298491029999999569e+01,5.393908530000000034e+00
3.970000000000000284e+01,9.199691642000000513e+01,6.164442654000000132e+00
3.989999999999999858e+01,9.086133144000000073e+01,6.113287214999999719e+00
4.010000000000000142e+01,1.105962045999999930e+02,6.633384857000000245e+00
4.029999999999999716e+01,1.073945116999999954e+02,6.524173442999999573e+00
4.050000000000000000e+01,1.011704612999999995e+02,6.340321690999999760e+00
4.070000000000000284e+01,9.621740382999999497e+01,6.137697128000000113e+00
4.089999999999999858e+01,7.078220521000000076e+01,5.099575258999999861e+00
4.110000000000000142e+01,6.002835941000000020e+01,4.654199971999999796e+00
4.129999999999999716e+01,6.140106526000000287e+01,4.680440313000000074e+00
4.150000000000000000e+01,6.282193550000000215e+01,5.065239091999999665e+00
4.170000000000000284e+01,6.286494340000000136e+01,4.809406928999999664e+00
4.189999999999999858e+01,6.810262298000000669e+01,5.171497560999999799e+00
4.210000000000000142e+01,6.371536509999999964e+01,5.020410755000000336e+00
4.229999999999999716e+01,5.661565341000000018e+01,4.527130118999999731e+00
4.250000000000000000e+01,5.778446027999999757e+01,4.522624921000000242e+00
4.270000000000000284e+01,6.055415473000000048e+01,4.857123473999999774e+00
4.289999999999999858e+01,5.646859320000000082e+01,4.450078067999999831e+00
4.310000000000000142e+01,5.298599875000000026e+01,4.541120499999999893e+00
4.329999999999999716e+01,6.747628088999999818e+01,4.942334147000000399e+00
4.350000000000000000e+01,6.663435866999999746e+01,4.874930211999999763e+00
4.370000000000000284e+01,6.584652300000000480e+01,4.882124409000000220e+00
4.389999999999999858e+01,7.278040364999999667e+01,5.396429752000000413e+00
4.410000000000000142e+01,6.622590128000000220e+01,5.005663983999999900e+00
4.429999999999999716e+01,6.808353436999999531e+01,4.987046798999999808e+00
4.450000000000000000e+01,5.958488838000000243e+01,4.587929696999999862e+00
4.470000000000000284e+01,6.457152644999999325e+01,4.837724388999999903e+00
4.489999999999999858e+01,6.606902549000000135e+01,4.833383504999999580e+00
4.510000000000000142e+01,6.377305276999999961e+01,4.853433518000000113e+00
4.529999999999999716e+01,6.476413125999999920e+01,4.784013253000000354e+00
4.550000000000000000e+01,6.117913431000000202e+01,4.935679192000000270e+00
4.570000000000000284e+01,5.622817323999999672e+01,4.517240175999999607e+00
4.589999999999999858e+01,5.794688894000000090e+01,4.597657952999999686e+00
4.610000000000000142e+01,6.164778402000000312e+01,4.688399643000000339e+00
4.629999999999999716e+01,7.763105124000000501e+01,5.619028905999999601e+00
4.650000000000000000e+01,7.623052119000000459e+01,5.721900681000000155e+00
4.670000000000000284e+01,8.647254902999999615e+01,6.214368390999999825e+00
4.689999999999999858e+01,9.387678687000000366e+01,6.766556138000000331e+00
4.710000000000000142e+01,1.198654705000000007e+02,8.163982005999999458e+00
4.729999999999999716e+01,1.229825589999999949e+02,8.148582186000000505e+00
4.750000000000000000e+01,1.413986701999999980e+02,8.853324573000000086e+00
4.770000000000000284e+01,1.079166452999999990e+02,7.478128521000000362e+00
4.789999999999999858e+01,1.063313784000000055e+02,7.072887267999999672e+00
4.810000000000000142e+01,9.102165442000000439e+01,6.501572347999999835e+00
4.829999999999999716e+01,9.127075154999999995e+01,6.301857486000000286e+00
4.850000000000000000e+01,7.768502913999999748e+01,5.717538925000000383e+00
4.870000000000000284e+01,7.939861867000000473e+01,5.486204725000000337e+00
4.889999999999999858e+01,7.699448015000000112e+01,5.302531892000000191e+00
4.910000000000000142e+01,7.829426544999999749e+01,5.203837062999999930e+00
4.929999999999999716e+01,8.724686841000000470e+01,5.606826821000000294e+00
4.950000000000000000e+01,8.166888833999999520e+01,5.447065889000000105e+00
4.970000000000000284e+01,9.008496436999999446e+01,5.527134135999999920e+00
4.989999999999999858e+01,9.688022736000000634e+01,5.831984562999999788e+00
5.010000000000000142e+01,8.922774696999999833e+01,5.586665621999999942e+00
5.029999999999999716e+01,7.881085061999999652e+01,5.221998947000000335e+00
5.050000000000000000e+01,8.172534871000000578e+01,5.528560834000000312e+00
5.070000000000000284e+01,7.152930202999999665e+01,5.076852253000000204e+00
5.089999999999999858e+01,7.616049463999999602e+01,5.315515389999999840e+00
5.110000000000000142e+01,7.091798052999999413e+01,5.115858425999999959e+00
5.129999999999999716e+01,8.284779217999999901e+01,5.655784026000000075e+00
5.150000000000000000e+01,6.937582933000000196e+01,4.934070361999999932e+00
5.170000000000000284e+01,7.720859989000000212e+01,5.390046371999999586e+00
5.189999999999999858e+01,7.133218492000000310e+01,5.051437639000000424e+00
5.210000000000000142e+01,7.335533655999999780e+01,5.240836717999999728e+00
5.229999999999999716e+01,6.650672805000000665e+01,4.797967722000000101e+00
5.250000000000000000e+01,6.663364649999999756e+01,4.892353313000000092e+00
5.270000000000000284e+01,6.485043969000000175e+01,4.886932470999999722e+00
5.289999999999999858e+01,7.401358277999999302e+01,5.166120126000000035e+00
5.310000000000000142e+01,7.189348977000000218e+01,5.146652942000000230e+00
5.329999999999999716e+01,6.663150733000000514e+01,4.914667735000000093e+00
5.350000000000000000e+01,7.247764865999999984e+01,5.120061637000000054e+00
5.370000000000000284e+01,7.404519990999999379e+01,5.355462250999999618e+00
5.389999999999999858e+01,7.214126478000000020e+01,5.239638863999999785e+00
5.410000000000000142e+01,7.526422114000000363e+01,5.233497382999999559e+00
5.429999999999999716e+01,7.307157291999999416e+01,5.463114293000000288e+00
5.450000000000000000e+01,8.770427419000000668e+01,5.797145906999999987e+00
5.470000000000000284e+01,7.248647673000000680e+01,5.187997762000000179e+00
5.489999999999999858e+01,6.857160331999999414e+01,4.969989438999999898e+00
5.510000000000000142e+01,7.376125426999999490e+01,5.180356304000000023e+00
5.529999999999999716e+01,6.868998111000000506e+01,5.017086477000000322e+00
5.550000000000000000e+01,7.413808539000000053e+01,5.132337346999999994e+00
5.570000000000000284e+01,7.295458077000000685e+01,5.334040640999999638e+00
5.589999999999999858e+01,7.843280004000000361e+01,5.323153838999999721e+00
5.610000000000000142e+01,6.829677012999999874e+01,5.034297326999999989e+00
5.629999999999999716e+01,6.878474074999999743e+01,4.986693448999999667e+00
5.650000000000000000e+01,7.591154380999999773e+01,5.229003532000000121e+00
5.670000000000000284e+01,6.936320584999999994e+01,5.044390883000000159e+00
5.689999999999999858e+01,7.366426862000000142e+01,4.982669464999999853e+00
5.710000000000000142e+01,7.153731836000000044e+01,5.036718577000000252e+00
5.729999999999999716e+01,9.203327403999999490e+01,5.904125479000000176e+00
5.750000000000000000e+01,7.867888080999999545e+01,5.240146139000000147e+00
5.770000000000000284e+01,7.627812921000000301e+01,5.015721059999999731e+00
5.789999999999999858e+01,8.362437826999999402e+01,5.350814187000000111e+00
5.810000000000000142e+01,8.157276047999999946e+01,5.318534936999999907e+00
5.829999999999999716e+01,8.858957553999999845e+01,5.565679561999999692e+00
5.850000000000000000e+01,8.966484837000000141e+01,5.501199681000000119e+00
5.870000000000000284e+01,9.350870650000000239e+01,5.830046547000000245e+00
5.889999999999999858e+01,8.959753453999999806e+01,5.856057864000000279e+00
5.910000000000000142e+01,7.333528110999999683e+01,5.133852447999999846e+00
5.929999999999999716e+01,7.718501666000000228e+01,5.350785369999999652e+00
5.950000000000000000e+01,7.920335181000000091e+01,5.405726365999999672e+00
5.970000000000000284e+01,8.528462917999999604e+01,5.523653164999999809e+00
5.989999999999999858e+01,7.519630612999999641e+01,5.304881776000000215e+00
6.010000000000000142e+01,8.402251737000000276e+01,5.561070823999999746e+00
6.029999999999999716e+01,7.678166348000000596e+01,5.267694200000000215e+00
6.050000000000000000e+01,8.190205598000000009e+01,5.450306627999999876e+00
6.070000000000000284e+01,8.039246441999999604e+01,5.401796392999999696e+00
6.089999999999999858e+01,7.335689460999999767e+01,5.178558874000000145e+00
6.110000000000000142e+01,7.967727892000000622e+01,5.488786181000000042e+00
6.129999999999999716e+01,6.630880578999999386e+01,5.367998391000000424e+00
6.150000000000000000e+01,6.928283378999999798e+01,5.261062574000000325e+00
6.170000000000000284e+01,8.531540205000000299e+01,5.756201330999999755e+00
6.189999999999999858e+01,7.652766895999999974e+01,5.268641113000000153e+00
6.210000000000000142e+01,7.684408713000000546e+01,5.306816247999999625e+00
6.229999999999999716e+01,7.959253078000000414e+01,5.363148585000000246e+00
6.250000000000000000e+01,9.213313388000000259e+01,5.842786321000000171e+00
6.270000000000000284e+01,8.326392198000000633e+01,5.889577667000000183e+00
6.289999999999999858e+01,8.873751076000000637e+01,5.796042357000000145e+00
6.310000000000000142e+01,9.615935267000000408e+01,5.992396444999999794e+00
6.329999999999999716e+01,9.903748672000000397e+01,6.268825409999999820e+00
6.350000000000000000e+01,1.065755415999999940e+02,6.666383304000000010e+00
6.370000000000000284e+01,1.053357792999999987e+02,6.627400039000000298e+00
6.389999999999999858e+01,9.775321132000000546e+01,6.160242027999999870e+00
6.409999999999999432e+01,1.049456402999999938e+02,6.644741605000000106e+00
6.429999999999999716e+01,1.027593435999999940e+02,6.547826459000000376e+00
6.450000000000000000e+01,9.907032300999999563e+01,6.391545955999999862e+00
6.470000000000000284e+01,1.121148017999999951e+02,6.720294419000000019e+00
6.490000000000000568e+01,9.801609535999999423e+01,6.266458844999999833e+00
6.509999999999999432e+01,1.019801534000000061e+02,6.346047078999999869e+00
6.529999999999999716e+01,1.149450044999999960e+02,6.806751593999999628e+00
6.550000000000000000e+01,1.151870744000000002e+02,6.892937954999999839e+00
6.570000000000000284e+01,1.072422389999999979e+02,6.618092897999999558e+00
6.590000000000000568e+01,9.669601853000000347e+01,6.042887824000000130e+00
6.609999999999999432e+01,1.030655881999999934e+02,6.443518420000000191e+00
6.629999999999999716e+01,9.820137787000000174e+01,6.140646575999999968e+00
6.650000000000000000e+01,9.469325990000000104e+01,6.154592627000000427e+00
6.670000000000000284e+01,1.001721646999999962e+02,6.147388149000000190e+00
6.690000000000000568e+01,8.766336284000000489e+01,5.648399035999999818e+00
6.709999999999999432e+01,8.364066794999999388e+01,5.685963200999999856e+00
6.729999999999999716e+01,8.283251196999999877e+01,5.508190943999999867e+00
6.750000000000000000e+01,7.659938771000000202e+01,5.320719698000000442e+00
6.770000000000000284e+01,7.907142432000000554e+01,5.404035864999999994e+00
6.790000000000000568e+01,8.928997028000000569e+01,5.873806584000000441e+00
6.809999999999999432e+01,8.640259335000000362e+01,5.705970388999999976e+00
6.829999999999999716e+01,9.166570269999999709e+01,5.884242577000000196e+00
6.850000000000000000e+01,8.048037895999999591e+01,5.414577227999999742e+00
6.870000000000000284e+01,8.770048108999999670e+01,5.775780225000000101e+00
6.890000000000000568e+01,9.919309359999999742e+01,6.121219079000000285e+00
6.909999999999999432e+01,8.067576943000000256e+01,5.567024652999999823e+00
6.929999999999999716e+01,8.439765026000000603e+01,5.486625882000000232e+00
6.950000000000000000e+01,7.972014282000000662e+01,5.404030921999999570e+00
6.970000000000000284e+01,8.998160282000000620e+01,5.665827829000000371e+00
6.990000000000000568e+01,7.515790637000000629e+01,5.299806448000000003e+00
7.009999999999999432e+01,8.219014536999999621e+01,5.832740416000000039e+00
7.029999999999999716e+01,8.575445009999999968e+01,5.651846966999999999e+00
7.050000000000000000e+01,7.821859412999999961e+01,5.284918595999999802e+00
7.070000000000000284e+01,8.614303524000000323e+01,5.561447883999999675e+00
7.090000000000000568e+01,9.463828101000000004e+01,5.914677292999999558e+00
7.109999999999999432e+01,8.513663880999999378e+01,5.920726854999999844e+00
7.129999999999999716e+01,8.521808194999999841e+01,5.539999373999999754e+00
7.150000000000000000e+01,9.041985974000000681e+01,5.876246380000000435e+00
7.170000000000000284e+01,9.256504932999999369e+01,5.866278744999999795e+00
7.190000000000000568e+01,8.147924149000000682e+01,5.567551493999999934e+00
7.209999999999999432e+01,9.122760820000000592e+01,5.811920354999999816e+00
7.229999999999999716e+01,9.155111748999999577e+01,5.982452580000000353e+00
7.250000000000000000e+01,9.360188023999999984e+01,5.959634535000000177e+00
7.270000000000000284e+01,9.653867404999999735e+01,6.022661746999999899e+00
7.290000000000000568e+01,1.144617317000000014e+02,6.715197648000000186e+00
7.309999999999999432e+01,1.016173215999999968e+02,6.355957226000000126e+00
7.329999999999999716e+01,1.084161055999999945e+02,6.557510065999999860e+00
7.350000000000000000e+01,9.911297473999999852e+01,6.157627334999999924e+00
7.370000000000000284e+01,9.735378047999999751e+01,6.049427224999999630e+00
7.390000000000000568e+01,9.838898476999999332e+01,6.085340093000000117e+00
7.409999999999999432e+01,9.087316248000000485e+01,5.770184362000000178e+00
7.429999999999999716e+01,8.640625253999999700e+01,5.609089881000000055e+00
7.450000000000000000e+01,8.452316908999999612e+01,5.545022582999999727e+00
7.470000000000000284e+01,9.774869622999999308e+01,6.104314707000000340e+00
7.490000000000000568e+01,9.258909778000000301e+01,5.852375195999999669e+00
7.509999999999999432e+01,8.909612875000000543e+01,5.730935973000000239e+00
7.529999999999999716e+01,8.105553174000000638e+01,5.582852184000000051e+00
7.550000000000000000e+01,8.418046701999999470e+01,5.507902296000000142e+00
7.570000000000000284e+01,9.035166132999999888e+01,5.903485032999999937e+00
7.590000000000000568e+01,9.537480286999999635e+01,5.980887652999999915e+00
7.609999999999999432e+01,9.123075790000000040e+01,5.854780949000000234e+00
7.629999999999999716e+01,9.412398512000000039e+01,5.850537307999999825e+00
7.650000000000000000e+01,8.863632988000000523e+01,5.701365048000000435e+00
7.670000000000000284e+01,9.078892374000000132e+01,5.753045722000000417e+00
7.690000000000000568e+01,8.540847451000000490e+01,5.537739228000000402e+00
7.709999999999999432e+01,9.699140291999999874e+01,6.027159887999999910e+00
7.729999999999999716e+01,1.032367138000000040e+02,6.335648961000000412e+00
7.750000000000000000e+01,1.021811416999999977e+02,6.167166610999999854e+00
7.770000000000000284e+01,9.877152171000000180e+01,6.018375258999999922e+00
7.790000000000000568e+01,1.055073368999999985e+02,6.332063856000000435e+00
7.809999999999999432e+01,1.010097793999999993e+02,6.090505509999999845e+00
7.829999999999999716e+01,1.000884434999999968e+02,6.044854071999999690e+00
7.850000000000000000e+01,1.063071209000000010e+02,6.311006648000000219e+00
7.870000000000000284e+01,9.787464280999999744e+01,6.017376449000000349e+00
7.890000000000000568e+01,9.459324539000000698e+01,5.810689606000000396e+00
7.909999999999999432e+01,1.038483738999999986e+02,6.141755016000000289e+00
7.929999999999999716e+01,9.991853994000000228e+01,5.985669728000000411e+00
7.950000000000000000e+01,9.478679438999999718e+01,6.012446380000000090e+00
7.970000000000000284e+01,9.949331141999999772e+01,6.078169025000000225e+00
7.990000000000000568e+01,9.642411855999999659e+01,6.002588247000000266e+00
8.009999999999999432e+01,9.861506504000000461e+01,6.206965606999999885e+00
8.029999999999999716e+01,9.205174273999999457e+01,5.882748915999999717e+00
8.050000000000000000e+01,7.644406376999999964e+01,5.205340549999999844e+00
8.070000000000000284e+01,9.674846626000000072e+01,5.901626496999999638e+00
8.090000000000000568e+01,8.185651258999999413e+01,5.519565529000000303e+00
8.109999999999999432e+01,9.212883788999999979e+01,5.865902816000000186e+00
8.129999999999999716e+01,8.885854808000000560e+01,5.811459021000000114e+00
8.150000000000000000e+01,9.259209694999999840e+01,6.133387371999999615e+00
8.170000000000000284e+01,8.614377978999999641e+01,5.673527060999999705e+00
8.190000000000000568e+01,8.200566027000000702e+01,5.464275860999999956e+00
8.209999999999999432e+01,9.280369799999999714e+01,5.771070370000000338e+00
8.229999999999999716e+01,9.853374304000000450e+01,5.972085551000000159e+00
8.250000000000000000e+01,7.817775636000000361e+01,5.352070128000000260e+00
8.270000000000000284e+01,8.348561098999999786e+01,5.537771266000000026e+00
8.290000000000000568e+01,9.115626820999999325e+01,5.707310128999999677e+00
8.309999999999999432e+01,8.793500781999999560e+01,5.593207244000000244e+00
8.329999999999999716e+01,9.867287358999999469e+01,6.122278189000000204e+00
8.350000000000000000e+01,1.013279706999999945e+02,6.078530576000000352e+00
8.370000000000000284e+01,8.495180815999999879e+01,5.671038798999999742e+00
8.390000000000000568e+01,9.226752270999999439e+01,5.863421808000000013e+00
8.409999999999999432e+01,9.836193341000000601e+01,6.222803880999999926e+00
8.429999999999999716e+01,9.228399790000000280e+01,5.696380881999999701e+00
8.450000000000000000e+01,9.029077542000000278e+01,5.671432625999999644e+00
8.470000000000000284e+01,9.272350109999999290e+01,5.876642119000000442e+00
8.490000000000000568e+01,8.867474095000000034e+01,5.681416461999999612e+00
8.509999999999999432e+01,8.671314420999999584e+01,5.518009093999999948e+00
8.529999999999999716e+01,9.755440679999999531e+01,5.879471549999999880e+00
8.550000000000000000e+01,8.609672043000000485e+01,5.514547724999999900e+00
8.570000000000000284e+01,9.247027649000000338e+01,5.824377809999999656e+00
8.590000000000000568e+01,8.992517494999999883e+01,5.853162874999999765e+00
8.609999999999999432e+01,9.784332406999999421e+01,6.069272040999999618e+00
8.629999999999999716e+01,9.812504703000000461e+01,5.942601124000000290e+00
8.650000000000000000e+01,1.000653786999999966e+02,6.188500738000000112e+00
8.670000000000000284e+01,9.545599072000000263e+01,5.885716690999999834e+00
8.690000000000000568e+01,9.140492054999999993e+01,5.672091294000000339e+00
8.709999999999999432e+01,9.499537170000000685e+01,5.723189610000000371e+00
8.729999999999999716e+01,9.940183455000000379e+01,6.088812464000000091e+00
8.750000000000000000e+01,1.003333015000000046e+02,6.087189158000000155e+00
8.770000000000000284e+01,1.017037461999999977e+02,6.172331941000000377e+00
8.790000000000000568e+01,8.921236229999999523e+01,5.603497864999999578e+00
8.809999999999999432e+01,9.184000878000000512e+01,5.871374009000000171e+00
8.829999999999999716e+01,8.300760762999999542e+01,5.443029848000000115e+00
8.850000000000000000e+01,8.875890287000000001e+01,5.782469756000000238e+00
8.870000000000000284e+01,8.141806019000000560e+01,5.495621180999999744e+00
8.890000000000000568e+01,9.619604916999999489e+01,6.153181582000000205e+00
8.909999999999999432e+01,8.766201958000000616e+01,5.667560817000000029e+00
8.929999999999999716e+01,9.094599218000000462e+01,5.914994130000000183e+00
8.950000000000000000e+01,8.159562388000000510e+01,5.574070247999999950e+00
8.970000000000000284e+01,1.003566777000000059e+02,6.401990016000000061e+00
8.990000000000000568e+01,8.617837636000000145e+01,5.719725377999999694e+00
9.009999999999999432e+01,8.781649059999999452e+01,5.983844787999999859e+00
9.029999999999999716e+01,1.000861364999999950e+02,6.321863483999999644e+00
9.050000000000000000e+01,1.017878242000000029e+02,6.791773712000000351e+00
9.070000000000000284e+01,1.064416138999999930e+02,6.636148937999999831e+00
9.090000000000000568e+01,1.107444993000000011e+02,6.895154288999999714e+00
9.109999999999999432e+01,1.244187359000000015e+02,7.591873550999999942e+00
9.129999999999999716e+01,1.042805910999999952e+02,6.511024207000000175e+00
9.150000000000000000e+01,1.167966693999999990e+02,7.102561212000000346e+00
9.170000000000000284e+01,1.109448323000000016e+02,7.036980272000000092e+00
9.190000000000000568e+01,1.050748811999999930e+02,6.776273167000000264e+00
9.209999999999999432e+01,1.234249516000000000e+02,7.367907269999999897e+00
9.229999999999999716e+01,1.105753372000000070e+02,7.139948394000000143e+00
9.250000000000000000e+01,1.161438657000000063e+02,7.081135169999999590e+00
9.270000000000000284e+01,1.150592486999999977e+02,6.896280424000000409e+00
9.290000000000000568e+01,1.087265399000000059e+02,6.477940202000000092e+00
9.309999999999999432e+01,1.296654919000000064e+02,7.570341542999999618e+00
9.329999999999999716e+01,1.071586970000000036e+02,6.514952698000000098e+00
9.350000000000000000e+01,1.127844398999999953e+02,6.600409780999999754e+00
9.370000000000000284e+01,1.179190748000000042e+02,6.805728442000000378e+00
9.390000000000000568e+01,1.114011059999999986e+02,6.507156849000000243e+00
9.409999999999999432e+01,1.069634207000000004e+02,6.307114540999999797e+00
9.429999999999999716e+01,1.162809914000000049e+02,6.479316405999999695e+00
9.450000000000000000e+01,9.514411966999999493e+01,5.767220402000000412e+00
9.470000000000000284e+01,1.022099132000000026e+02,6.119991057000000012e+00
9.490000000000000568e+01,9.475750100999999859e+01,5.798578218000000284e+00
9.509999999999999432e+01,9.562322914000000651e+01,5.936806551000000098e+00
9.529999999999999716e+01,9.474275738000000047e+01,5.979752824000000189e+00
9.550000000000000000e+01,9.099202683999999408e+01,5.949205642999999988e+00
9.570000000000000284e+01,1.008377502999999962e+02,6.061079889000000165e+00
9.590000000000000568e+01,9.441343374000000210e+01,5.840775025000000120e+00
9.609999999999999432e+01,9.766088605999999572e+01,5.906200177999999745e+00
9.629999999999999716e+01,9.720459411999999588e+01,6.042687719999999985e+00
9.650000000000000000e+01,8.471467425000000162e+01,5.644746062000000286e+00
9.670000000000000284e+01,8.721081848999999409e+01,5.593905442999999700e+00
9.690000000000000568e+01,8.923134016000000202e+01,5.673917677000000381e+00
9.709999999999999432e+01,8.898873960000000238e+01,5.643498186999999611e+00
9.729999999999999716e+01,9.105784721999999931e+01,5.867486664000000296e+00
9.750000000000000000e+01,9.103626821999999663e+01,5.759149994999999578e+00
9.770000000000000284e+01,9.987843904999999722e+01,6.038750649999999887e+00
9.790000000000000568e+01,9.873837188000000253e+01,5.952900824000000313e+00
9.809999999999999432e+01,1.030753825000000035e+02,6.303566516000000064e+00
9.829999999999999716e+01,1.009747385999999949e+02,6.055670658999999567e+00
9.850000000000000000e+01,9.636344133999999428e+01,6.165167832999999931e+00
9.870000000000000284e+01,9.107399306000000649e+01,5.655576868999999895e+00
9.890000000000000568e+01,1.051107496999999995e+02,6.469174804999999751e+00
9.909999999999999432e+01,9.221913145999999983e+01,5.904333038999999950e+00
9.929999999999999716e+01,1.100542116999999962e+02,6.554119570000000117e+00
9.950000000000000000e+01,9.184392690999999331e+01,5.801722622999999857e+00
9.970000000000000284e+01,9.145245112000000631e+01,5.706713307000000235e+00
9.990000000000000568e+01,1.054910273999999930e+02,6.291870894999999742e+00
