x_axis,Intensity,Error
1.009999999999999964e+01,2.179735063000000039e+01,2.424840356999999891e+00
1.030000000000000071e+01,1.749680796999999899e+01,2.316955815000000030e+00
1.050000000000000000e+01,2.051254076000000026e+01,2.321820289000000148e+00
1.069999999999999929e+01,2.051492829000000029e+01,2.412985275000000041e+00
1.090000000000000036e+01,2.389748631999999873e+01,2.557277586000000102e+00
1.109999999999999964e+01,2.096287068999999903e+01,2.460909346999999858e+00
1.130000000000000071e+01,2.556625959000000137e+01,2.690361446999999906e+00
1.150000000000000000e+01,2.172225549999999927e+01,2.473263307999999938e+00
1.169999999999999929e+01,2.044816791999999950e+01,2.342736112999999953e+00
1.190000000000000036e+01,1.906493408000000045e+01,2.227039915999999842e+00
1.209999999999999964e+01,2.377567176000000160e+01,2.580428647999999825e+00
1.230000000000000071e+01,2.175053109999999990e+01,2.608271005999999836e+00
1.250000000000000000e+01,1.639598983000000132e+01,2.023506380999999799e+00
1.269999999999999929e+01,2.366413186000000124e+01,2.609730793000000215e+00
1.290000000000000036e+01,2.137078427000000147e+01,2.374543010000000010e+00
1.309999999999999964e+01,1.448958185999999948e+01,2.082895527999999885e+00
1.330000000000000071e+01,2.672895026000000129e+01,2.783478560999999907e+00
1.350000000000000000e+01,2.549083706000000049e+01,2.606650704000000207e+00
1.369999999999999929e+01,1.889171059999999969e+01,2.147142142999999948e+00
1.390000000000000036e+01,1.964570322999999874e+01,2.300997076999999891e+00
1.409999999999999964e+01,2.175610513000000168e+01,2.426992443000000055e+00
1.430000000000000071e+01,2.510882356000000115e+01,2.620177434999999999e+00
1.450000000000000000e+01,2.231927801000000144e+01,2.578141109000000153e+00
1.469999999999999929e+01,2.079892526000000075e+01,2.367611134000000117e+00
1.490000000000000036e+01,2.343738205000000008e+01,2.484158804000000220e+00
1.509999999999999964e+01,2.869341109999999873e+01,2.855300093999999955e+00
1.530000000000000071e+01,2.716852387999999863e+01,2.812088097999999814e+00
1.550000000000000000e+01,2.256741694000000109e+01,2.460866634999999913e+00
1.569999999999999929e+01,2.250473240000000175e+01,2.499553308999999945e+00
1.590000000000000036e+01,2.769952596999999983e+01,2.727255952999999788e+00
1.610000000000000142e+01,2.526263787999999977e+01,2.721591378999999922e+00
1.630000000000000071e+01,1.994510937000000084e+01,2.293320228999999877e+00
1.650000000000000000e+01,2.205130580000000151e+01,2.489007562999999923e+00
1.669999999999999929e+01,2.467153766999999931e+01,2.653272786000000050e+00
1.689999999999999858e+01,2.379275971999999939e+01,2.538053720999999818e+00
1.710000000000000142e+01,2.753548491999999825e+01,2.805878030000000134e+00
1.730000000000000071e+01,2.599652169999999884e+01,2.679653202999999984e+00
1.750000000000000000e+01,2.807140500999999944e+01,2.795030037000000078e+00
1.769999999999999929e+01,2.273556514999999933e+01,2.484882334999999998e+00
1.789999999999999858e+01,2.727355977999999936e+01,2.728258163000000014e+00
1.810000000000000142e+01,2.861804889000000074e+01,2.939685054999999991e+00
1.830000000000000071e+01,2.804427872999999849e+01,2.797099515000000203e+00
1.850000000000000000e+01,3.077843509999999938e+01,2.891441224999999893e+00
1.869999999999999929e+01,2.935690101000000141e+01,2.916277597000000110e+00
1.889999999999999858e+01,3.114008836000000002e+01,3.038025343999999794e+00
1.910000000000000142e+01,2.922075784000000098e+01,2.856360210000000066e+00
1.930000000000000071e+01,3.073632672000000099e+01,3.023873239999999907e+00
1.950000000000000000e+01,2.778707783999999847e+01,2.745447674999999865e+00
1.969999999999999929e+01,2.851766671000000031e+01,2.816743810999999820e+00
1.989999999999999858e+01,2.739893225999999871e+01,2.702201728999999997e+00
2.010000000000000142e+01,2.424393223999999947e+01,2.505879891000000192e+00
2.030000000000000071e+01,2.237439721999999875e+01,2.464020990999999938e+00
2.050000000000000000e+01,2.589806098000000034e+01,2.705002712000000198e+00
2.069999999999999929e+01,2.861937817000000095e+01,2.809443153000000137e+00
2.089999999999999858e+01,2.749300245999999959e+01,2.735672564999999778e+00
2.110000000000000142e+01,4.059678431999999759e+01,3.418610607000000190e+00
2.130000000000000071e+01,2.786449930999999935e+01,2.770320304999999816e+00
2.150000000000000000e+01,2.482313630000000160e+01,2.630260772999999830e+00
2.169999999999999929e+01,2.746899222000000051e+01,2.745850499999999972e+00
2.189999999999999858e+01,2.997415143999999998e+01,3.078014731000000115e+00
2.210000000000000142e+01,3.251782486999999833e+01,3.009488773999999811e+00
2.230000000000000071e+01,3.816074816999999797e+01,3.285600738999999937e+00
2.250000000000000000e+01,2.819428522999999842e+01,2.763731561000000170e+00
2.269999999999999929e+01,3.123065620999999936e+01,2.861707347999999929e+00
2.289999999999999858e+01,3.179806539999999870e+01,2.935424118999999887e+00
2.310000000000000142e+01,3.090663250000000062e+01,2.895047998999999983e+00
2.330000000000000071e+01,3.093113173000000060e+01,2.866775377000000180e+00
2.350000000000000000e+01,3.593978686999999894e+01,3.191806088999999957e+00
2.369999999999999929e+01,2.651363990000000115e+01,2.681073190999999856e+00
2.389999999999999858e+01,3.330687771000000197e+01,3.054050396000000056e+00
2.410000000000000142e+01,2.988699702999999985e+01,2.836714043000000185e+00
2.430000000000000071e+01,3.393803625000000324e+01,3.004723326000000139e+00
2.450000000000000000e+01,3.336990406999999692e+01,3.059282812999999823e+00
2.469999999999999929e+01,3.056409779000000171e+01,2.924517947000000007e+00
2.489999999999999858e+01,3.440727163999999760e+01,3.106184883000000063e+00
2.510000000000000142e+01,3.815822886000000125e+01,3.248043399000000164e+00
2.530000000000000071e+01,3.769729334000000165e+01,3.208501619000000193e+00
2.550000000000000000e+01,3.315271031000000335e+01,2.894493710999999969e+00
2.569999999999999929e+01,3.212850567000000268e+01,2.904640699000000215e+00
2.589999999999999858e+01,2.970178354000000098e+01,2.902286928000000099e+00
2.610000000000000142e+01,2.958511319000000128e+01,2.791406749000000076e+00
2.630000000000000071e+01,3.687472288000000020e+01,3.182897258000000118e+00
2.650000000000000000e+01,3.665645598999999777e+01,3.239052084999999970e+00
2.669999999999999929e+01,3.218654653000000110e+01,3.005163717999999928e+00
2.689999999999999858e+01,3.308410296000000272e+01,2.980216398000000044e+00
2.710000000000000142e+01,3.606552089000000194e+01,3.082026522000000046e+00
2.730000000000000071e+01,3.581777704999999656e+01,3.249927497999999915e+00
2.750000000000000000e+01,3.249934702000000186e+01,2.915927181999999895e+00
2.769999999999999929e+01,3.612704684999999927e+01,3.066291034999999887e+00
2.789999999999999858e+01,4.231768956999999887e+01,3.447404976000000065e+00
2.810000000000000142e+01,3.241207062000000150e+01,2.911257419000000013e+00
2.830000000000000071e+01,3.590003682999999768e+01,3.223287566999999854e+00
2.850000000000000000e+01,3.744676946999999956e+01,3.193465089000000035e+00
2.869999999999999929e+01,3.402107820999999888e+01,3.028429044000000125e+00
2.889999999999999858e+01,3.478116768000000292e+01,3.189959607000000030e+00
2.910000000000000142e+01,3.581248550000000108e+01,3.162153571000000163e+00
2.930000000000000071e+01,3.768845317000000250e+01,3.143566641000000050e+00
2.950000000000000000e+01,3.573697109999999810e+01,3.226667690999999838e+00
2.969999999999999929e+01,3.758996790999999860e+01,3.235349853000000220e+00
2.989999999999999858e+01,3.747024640000000062e+01,3.217545782000000187e+00
3.010000000000000142e+01,3.770708327999999909e+01,3.220735590999999953e+00
3.030000000000000071e+01,3.313190174000000354e+01,2.948997491000000082e+00
3.050000000000000000e+01,4.378253425999999848e+01,3.428923764999999957e+00
3.069999999999999929e+01,3.388646880999999667e+01,3.009938636999999861e+00
3.089999999999999858e+01,4.504023394000000025e+01,3.649544781999999987e+00
3.110000000000000142e+01,3.981786043999999691e+01,3.260855070999999938e+00
3.130000000000000071e+01,3.341211207999999999e+01,2.889582016999999947e+00
3.150000000000000000e+01,3.944673127000000079e+01,3.269029948000000019e+00
3.169999999999999929e+01,3.879052501000000319e+01,3.325773342999999826e+00
3.189999999999999858e+01,4.020683547000000146e+01,3.368426492999999855e+00
3.210000000000000142e+01,4.053750875000000065e+01,3.320542504000000061e+00
3.229999999999999716e+01,2.870509174000000030e+01,2.795982374999999909e+00
3.250000000000000000e+01,4.353658364000000347e+01,3.398770284999999891e+00
3.270000000000000284e+01,4.145407618000000127e+01,3.515763633999999804e+00
3.289999999999999858e+01,4.083761673000000059e+01,3.341620859999999915e+00
3.310000000000000142e+01,4.076553260000000023e+01,3.418245245000000043e+00
3.329999999999999716e+01,4.128169462999999695e+01,3.327636492999999973e+00
3.350000000000000000e+01,4.193455362000000264e+01,3.451991404000000152e+00
3.370000000000000284e+01,4.555195788999999706e+01,3.653561470000000089e+00
3.389999999999999858e+01,3.798403852999999941e+01,3.169254356000000161e+00
3.410000000000000142e+01,4.370213056000000051e+01,3.487298447000000134e+00
3.429999999999999716e+01,4.335171513000000232e+01,3.494166388000000012e+00
3.450000000000000000e+01,4.425697077000000235e+01,3.550990453999999907e+00
3.470000000000000284e+01,4.516945365000000123e+01,3.466328625000000052e+00
3.489999999999999858e+01,4.692588652999999965e+01,3.569233860000000202e+00
3.510000000000000142e+01,4.503116075999999879e+01,3.556990086999999967e+00
3.529999999999999716e+01,4.522712433000000232e+01,3.564526107999999915e+00
3.550000000000000000e+01,4.315723602999999997e+01,3.412860815000000159e+00
3.570000000000000284e+01,4.488293686000000093e+01,3.491210136999999936e+00
3.589999999999999858e+01,4.675177990000000250e+01,3.469517091000000164e+00
3.610000000000000142e+01,6.972980434000000116e+01,4.284489441999999926e+00
3.629999999999999716e+01,9.946032757000000402e+01,5.335004192999999617e+00
3.650000000000000000e+01,1.518957087000000001e+02,6.932714930000000386e+00
3.670000000000000284e+01,1.665361784000000114e+02,7.333074022999999997e+00
3.689999999999999858e+01,1.495773838000000069e+02,6.889216017999999941e+00
3.710000000000000142e+01,8.766273071000000527e+01,4.859716696999999641e+00
3.729999999999999716e+01,6.416149058000000593e+01,4.103227332000000338e+00
3.750000000000000000e+01,4.724280470000000065e+01,3.536800765999999818e+00
3.770000000000000284e+01,4.238788955999999786e+01,3.397523604999999947e+00
3.789999999999999858e+01,4.631945603999999861e+01,3.592966495000000204e+00
3.810000000000000142e+01,4.722417396000000167e+01,3.664738258999999942e+00
3.829999999999999716e+01,4.267384557999999828e+01,3.465363564000000007e+00
3.850000000000000000e+01,4.842922923999999796e+01,3.664562795999999789e+00
3.870000000000000284e+01,4.315653366000000091e+01,3.405343128999999802e+00
3.889999999999999858e+01,4.322154135000000252e+01,3.369777029000000201e+00
3.910000000000000142e+01,4.375485195000000260e+01,3.433136199999999860e+00
3.929999999999999716e+01,4.692224286999999805e+01,3.642003191000000140e+00
3.950000000000000000e+01,4.319079986999999932e+01,3.342029034999999926e+00
3.970000000000000284e+01,4.781847074000000219e+01,3.683535780999999787e+00
3.989999999999999858e+01,4.414931087000000076e+01,3.676831179000000116e+00
4.010000000000000142e+01,4.731396755000000098e+01,3.571992641000000024e+00
4.029999999999999716e+01,4.895158614999999713e+01,3.704848281999999937e+00
4.050000000000000000e+01,4.213059178999999688e+01,3.450224749999999840e+00
4.070000000000000284e+01,4.465295799999999815e+01,3.544372844999999828e+00
4.089999999999999858e+01,4.908918583999999896e+01,3.716261734999999788e+00
4.110000000000000142e+01,5.161468439000000075e+01,3.832140660999999948e+00
4.129999999999999716e+01,4.424883391000000188e+01,3.433958885000000016e+00
4.150000000000000000e+01,4.819810645999999821e+01,3.755504494000000193e+00
4.170000000000000284e+01,4.398608045000000288e+01,3.382438292999999874e+00
4.189999999999999858e+01,5.478484734999999972e+01,3.782493678999999887e+00
4.210000000000000142e+01,6.736060777000000144e+01,4.126131008999999850e+00
4.229999999999999716e+01,9.633009497000000465e+01,4.808186455000000414e+00
4.250000000000000000e+01,1.205676148999999953e+02,5.410660644000000019e+00
4.270000000000000284e+01,1.067535800999999935e+02,5.100863520999999956e+00
4.289999999999999858e+01,1.001612494000000027e+02,4.882634522000000032e+00
4.310000000000000142e+01,7.892460407000000089e+01,4.304830749999999817e+00
4.329999999999999716e+01,6.097251139000000109e+01,3.925159025000000135e+00
4.350000000000000000e+01,4.928233937000000253e+01,3.538402695999999903e+00
4.370000000000000284e+01,5.739875676999999854e+01,4.039890647000000001e+00
4.389999999999999858e+01,4.878639290000000273e+01,3.599373417999999880e+00
4.410000000000000142e+01,5.172853358999999784e+01,3.748596253000000100e+00
4.429999999999999716e+01,5.071793790000000257e+01,3.674614184999999811e+00
4.450000000000000000e+01,5.384698163000000193e+01,3.901046562999999967e+00
4.470000000000000284e+01,5.126147979000000277e+01,3.738606657000000055e+00
4.489999999999999858e+01,5.050861593999999855e+01,3.706363447999999838e+00
4.510000000000000142e+01,4.269603982999999658e+01,3.452363923000000057e+00
4.529999999999999716e+01,5.188784483999999964e+01,3.792381137000000013e+00
4.550000000000000000e+01,5.350525598000000116e+01,3.753310466999999928e+00
4.570000000000000284e+01,4.876985695999999848e+01,3.643256637999999992e+00
4.589999999999999858e+01,5.131108118000000218e+01,3.700823011999999856e+00
4.610000000000000142e+01,4.591567923000000206e+01,3.464803852000000184e+00
4.629999999999999716e+01,4.957368844999999880e+01,3.606803397999999827e+00
4.650000000000000000e+01,5.206865260000000006e+01,3.884768171000000159e+00
4.670000000000000284e+01,5.296225948000000017e+01,3.792883434000000165e+00
4.689999999999999858e+01,5.526150947000000002e+01,3.856803764999999995e+00
4.710000000000000142e+01,4.582372834000000239e+01,3.460377505999999936e+00
4.729999999999999716e+01,5.119996617000000327e+01,3.759681950000000050e+00
4.750000000000000000e+01,5.982521796000000336e+01,4.060718974000000259e+00
4.770000000000000284e+01,5.682099389999999772e+01,3.964653650999999890e+00
4.789999999999999858e+01,4.292908206999999976e+01,3.380075162999999883e+00
4.810000000000000142e+01,5.689634501999999827e+01,3.993100967000000168e+00
4.829999999999999716e+01,5.127245766000000060e+01,3.758241930000000064e+00
4.850000000000000000e+01,5.455502423000000078e+01,3.912607325999999830e+00
4.870000000000000284e+01,5.299742336999999992e+01,3.816227014999999945e+00
4.889999999999999858e+01,4.870820112999999907e+01,3.617256951999999970e+00
4.910000000000000142e+01,5.150074682999999709e+01,3.751833009999999913e+00
4.929999999999999716e+01,5.743559121999999917e+01,4.078872760000000319e+00
4.950000000000000000e+01,5.091256865999999803e+01,3.746504895999999807e+00
4.970000000000000284e+01,5.397674221999999844e+01,3.909309069999999942e+00
4.989999999999999858e+01,5.682261084000000295e+01,3.943334112000000058e+00
5.010000000000000142e+01,5.145413233000000020e+01,3.785018626999999913e+00
5.029999999999999716e+01,5.669600194000000215e+01,3.996774371999999964e+00
5.050000000000000000e+01,5.481991253000000341e+01,3.829847555999999820e+00
5.070000000000000284e+01,5.815050648999999794e+01,3.939822836999999911e+00
5.089999999999999858e+01,5.112260185000000234e+01,3.713686497999999947e+00
5.110000000000000142e+01,4.782092134999999899e+01,3.614419198000000222e+00
5.129999999999999716e+01,5.323839530000000053e+01,3.792282367999999959e+00
5.150000000000000000e+01,5.114058816000000007e+01,3.778905792999999846e+00
5.170000000000000284e+01,5.462007358999999695e+01,3.980736636000000050e+00
5.189999999999999858e+01,5.164857770999999786e+01,3.655916948999999860e+00
5.210000000000000142e+01,5.224171227000000073e+01,3.709826706999999946e+00
5.229999999999999716e+01,5.248164246000000333e+01,3.852326156999999807e+00
5.250000000000000000e+01,5.180416266999999664e+01,3.789354713999999902e+00
5.270000000000000284e+01,6.235943222000000219e+01,4.188704738000000205e+00
5.289999999999999858e+01,5.571985690999999719e+01,4.053764901000000087e+00
5.310000000000000142e+01,5.856720140000000185e+01,4.053888669000000000e+00
5.329999999999999716e+01,5.674152553999999782e+01,3.928681656999999827e+00
5.350000000000000000e+01,5.542838900999999652e+01,3.943646401000000079e+00
5.370000000000000284e+01,5.215531101999999919e+01,3.731578679000000065e+00
5.389999999999999858e+01,5.725751423999999901e+01,3.968262183000000221e+00
5.410000000000000142e+01,5.976736351000000269e+01,4.165122427000000016e+00
5.429999999999999716e+01,5.497108460999999835e+01,3.923291464000000062e+00
5.450000000000000000e+01,4.933169953000000163e+01,3.637854122999999884e+00
5.470000000000000284e+01,5.388342680000000229e+01,3.847739631000000049e+00
5.489999999999999858e+01,5.547851717999999721e+01,3.872175608000000047e+00
5.510000000000000142e+01,5.470541963000000152e+01,3.867003901999999993e+00
5.529999999999999716e+01,6.429405058000000395e+01,4.260619356000000302e+00
5.550000000000000000e+01,6.177551846000000069e+01,4.069815604000000420e+00
5.570000000000000284e+01,5.666246510999999941e+01,3.928782223999999879e+00
5.589999999999999858e+01,4.927550931999999762e+01,3.628989245000000086e+00
5.610000000000000142e+01,6.234714607000000086e+01,4.199314703999999843e+00
5.629999999999999716e+01,5.861763835000000000e+01,4.129959946999999687e+00
5.650000000000000000e+01,5.474533146000000272e+01,3.880555735000000173e+00
5.670000000000000284e+01,5.942888770999999792e+01,3.959351416000000068e+00
5.689999999999999858e+01,5.878166526999999775e+01,4.063731390000000054e+00
5.710000000000000142e+01,5.716438926000000009e+01,3.989589287999999900e+00
5.729999999999999716e+01,5.631092654999999780e+01,4.016710770000000430e+00
5.750000000000000000e+01,5.739072948999999824e+01,3.985680388000000018e+00
5.770000000000000284e+01,5.308695878999999707e+01,3.827287709999999787e+00
5.789999999999999858e+01,5.984029101000000139e+01,4.011387087000000129e+00
5.810000000000000142e+01,6.075095804000000044e+01,4.067063925000000246e+00
5.829999999999999716e+01,6.259060111000000148e+01,4.145378521999999677e+00
5.850000000000000000e+01,4.918457252999999696e+01,3.553789344000000128e+00
5.870000000000000284e+01,5.701195681000000093e+01,3.965823460000000189e+00
5.889999999999999858e+01,6.075824474000000208e+01,3.994585017999999987e+00
5.910000000000000142e+01,5.564297229000000300e+01,3.901359584999999797e+00
5.929999999999999716e+01,6.192942808000000099e+01,4.159114944999999786e+00
5.950000000000000000e+01,5.774693159000000264e+01,4.037976912999999612e+00
5.970000000000000284e+01,5.925919291000000300e+01,4.092560719999999819e+00
5.989999999999999858e+01,5.886282346000000132e+01,3.952254728000000217e+00
6.010000000000000142e+01,6.087411861999999729e+01,4.052964146999999961e+00
6.029999999999999716e+01,5.317429433000000216e+01,3.816345722999999968e+00
6.050000000000000000e+01,5.966618911999999852e+01,3.974415910999999912e+00
6.070000000000000284e+01,6.331933682999999746e+01,4.261759234000000340e+00
6.089999999999999858e+01,6.307220388000000355e+01,4.098096561000000193e+00
6.110000000000000142e+01,6.592105859000000123e+01,4.247911761000000119e+00
6.129999999999999716e+01,8.574751267999999982e+01,4.827784242999999975e+00
6.150000000000000000e+01,9.787325690999999495e+01,5.162846984999999833e+00
6.170000000000000284e+01,1.157565426999999971e+02,5.785256407000000323e+00
6.189999999999999858e+01,1.286473284999999862e+02,6.072355068000000244e+00
6.210000000000000142e+01,1.197095845999999995e+02,5.932596853999999809e+00
6.229999999999999716e+01,9.528936469999999304e+01,5.099358221000000135e+00
6.250000000000000000e+01,8.637850353999999697e+01,4.897135784999999686e+00
6.270000000000000284e+01,7.176685471999999777e+01,4.390320436999999743e+00
6.289999999999999858e+01,6.093434921000000060e+01,3.951181359000000004e+00
6.310000000000000142e+01,6.266833842999999860e+01,4.152040363000000234e+00
6.329999999999999716e+01,5.508004559999999827e+01,3.925391593000000068e+00
6.350000000000000000e+01,5.779867881999999923e+01,3.996151106000000119e+00
6.370000000000000284e+01,6.318787440999999916e+01,4.129862764000000297e+00
6.389999999999999858e+01,6.095957879000000190e+01,4.051105798000000036e+00
6.409999999999999432e+01,5.402782126000000318e+01,3.794862973999999944e+00
6.429999999999999716e+01,4.828397970000000328e+01,3.643332383999999813e+00
6.450000000000000000e+01,5.819412393999999722e+01,3.898970815999999839e+00
6.470000000000000284e+01,6.372781608999999747e+01,4.122613226000000353e+00
6.490000000000000568e+01,6.287733503999999840e+01,4.176702803999999603e+00
6.509999999999999432e+01,6.174934583000000288e+01,4.099469335000000214e+00
6.529999999999999716e+01,5.705249254999999664e+01,3.939229141999999850e+00
6.550000000000000000e+01,6.417929664999999773e+01,4.175594261999999723e+00
6.570000000000000284e+01,6.609794139000000257e+01,4.224070022000000257e+00
6.590000000000000568e+01,5.637468524999999886e+01,3.834557848000000213e+00
6.609999999999999432e+01,5.863605909999999710e+01,3.971656015000000206e+00
6.629999999999999716e+01,6.585099909999999568e+01,4.276003850000000384e+00
6.650000000000000000e+01,5.953595708000000286e+01,4.056756098000000144e+00
6.670000000000000284e+01,6.439971131999999443e+01,4.179168381000000210e+00
6.690000000000000568e+01,6.459400135999999293e+01,4.204659701999999832e+00
6.709999999999999432e+01,5.722756734000000023e+01,3.834516590999999863e+00
6.729999999999999716e+01,6.587312615000000449e+01,4.236239666000000348e+00
6.750000000000000000e+01,5.795790033000000108e+01,4.038848898000000354e+00
6.770000000000000284e+01,7.296606309000000579e+01,4.506481154000000267e+00
6.790000000000000568e+01,5.910341492999999957e+01,4.080283503999999617e+00
6.809999999999999432e+01,6.017465184000000278e+01,4.095412009000000353e+00
6.829999999999999716e+01,6.832571771000000638e+01,4.302214820999999745e+00
6.850000000000000000e+01,5.830102062000000274e+01,3.910520092000000059e+00
6.870000000000000284e+01,5.779594739000000203e+01,4.010313044000000104e+00
6.890000000000000568e+01,6.637036741999999379e+01,4.319581824000000125e+00
6.909999999999999432e+01,6.370749009000000029e+01,4.238253448000000034e+00
6.929999999999999716e+01,5.779770140000000112e+01,3.892178127000000210e+00
6.950000000000000000e+01,6.350166854999999799e+01,4.188797613000000197e+00
6.970000000000000284e+01,5.886289787999999845e+01,4.026022735999999824e+00
6.990000000000000568e+01,6.141736032000000023e+01,4.126365983000000348e+00
7.009999999999999432e+01,6.394705359000000300e+01,4.218934476000000267e+00
7.029999999999999716e+01,6.067767271000000306e+01,4.027926257999999926e+00
7.050000000000000000e+01,6.604574220000000651e+01,4.283678240999999609e+00
7.070000000000000284e+01,6.278986830000000197e+01,4.232052026999999939e+00
7.090000000000000568e+01,6.568089969999999767e+01,4.252388586000000359e+00
7.109999999999999432e+01,6.012563815000000034e+01,4.009295803999999741e+00
7.129999999999999716e+01,6.589140532000000405e+01,4.330721806999999757e+00
7.150000000000000000e+01,6.778571191000000340e+01,4.338604646000000287e+00
7.170000000000000284e+01,6.219543428000000063e+01,4.219225608000000349e+00
7.190000000000000568e+01,5.781574524999999909e+01,3.940193738000000057e+00
7.209999999999999432e+01,5.726300327999999951e+01,3.988373715999999902e+00
7.229999999999999716e+01,5.993889372999999665e+01,4.058547707999999865e+00
7.250000000000000000e+01,6.399585239000000314e+01,4.144450661999999674e+00
7.270000000000000284e+01,6.414149539999999661e+01,4.235393335000000370e+00
7.290000000000000568e+01,6.824745251000000223e+01,4.366010664000000041e+00
7.309999999999999432e+01,7.261324091999999553e+01,4.456959788999999894e+00
7.329999999999999716e+01,7.316310072999999647e+01,4.711087385999999988e+00
7.350000000000000000e+01,1.006715786000000037e+02,5.746281411000000006e+00
7.370000000000000284e+01,1.206440153000000066e+02,6.633255519000000433e+00
7.390000000000000568e+01,1.433238024000000053e+02,7.502359108000000276e+00
7.409999999999999432e+01,1.465170008999999993e+02,7.842431415000000072e+00
7.429999999999999716e+01,1.537022651999999994e+02,8.087763642000000530e+00
7.450000000000000000e+01,1.390893796999999950e+02,7.347594099000000156e+00
7.470000000000000284e+01,1.173649999999999949e+02,6.673565214999999995e+00
7.490000000000000568e+01,1.017028066000000024e+02,5.762110239000000078e+00
7.509999999999999432e+01,7.534691232000000127e+01,4.851518216999999744e+00
7.529999999999999716e+01,7.286665467000000262e+01,4.540113730999999930e+00
7.550000000000000000e+01,6.699026154000000588e+01,4.346870366000000097e+00
7.570000000000000284e+01,6.191028840999999971e+01,4.080734027000000097e+00
7.590000000000000568e+01,6.328929292000000117e+01,4.176667790999999852e+00
7.609999999999999432e+01,6.121488730000000089e+01,4.023069943000000315e+00
7.629999999999999716e+01,6.263058161000000013e+01,4.099334106999999783e+00
7.650000000000000000e+01,7.021640682000000311e+01,4.339946074000000209e+00
7.670000000000000284e+01,5.876517917000000324e+01,4.079040603000000154e+00
7.690000000000000568e+01,6.330257610999999685e+01,4.079252803000000149e+00
7.709999999999999432e+01,6.840567104000000143e+01,4.238168952999999739e+00
7.729999999999999716e+01,6.982275335999999299e+01,4.231291495999999874e+00
7.750000000000000000e+01,8.124053929000000096e+01,4.496969963999999820e+00
7.770000000000000284e+01,7.754786715000000186e+01,4.446304812000000162e+00
7.790000000000000568e+01,8.748013862999999901e+01,4.637116009999999733e+00
7.809999999999999432e+01,7.949505256000000486e+01,4.293277795999999924e+00
7.829999999999999716e+01,8.114990840999999477e+01,4.342374056999999787e+00
7.850000000000000000e+01,9.116710940999999480e+01,4.722418134999999850e+00
7.870000000000000284e+01,7.738273202999999967e+01,4.458210990999999623e+00
7.890000000000000568e+01,7.013593192999999815e+01,4.243083365000000384e+00
7.909999999999999432e+01,6.319449631999999895e+01,3.955090207000000024e+00
7.929999999999999716e+01,6.730445618000000252e+01,4.277464048999999768e+00
7.950000000000000000e+01,6.701784374999999727e+01,4.270801603999999863e+00
7.970000000000000284e+01,6.416495204000000285e+01,4.236459059999999610e+00
7.990000000000000568e+01,7.150211226999999781e+01,4.437870484000000282e+00
8.009999999999999432e+01,5.736345622999999705e+01,4.002733893000000265e+00
8.029999999999999716e+01,6.848055148999999631e+01,4.419789489000000238e+00
8.050000000000000000e+01,6.606161763999999437e+01,4.298175874000000007e+00
8.070000000000000284e+01,7.061424148999999773e+01,4.469346765000000055e+00
8.090000000000000568e+01,6.297992106000000234e+01,4.146019084999999826e+00
8.109999999999999432e+01,6.386641905999999835e+01,4.170154368999999583e+00
8.129999999999999716e+01,6.596116374999999721e+01,4.224948107000000341e+00
8.150000000000000000e+01,5.901920935999999784e+01,3.958772675000000074e+00
8.170000000000000284e+01,6.493731812999999420e+01,4.314270540999999959e+00
8.190000000000000568e+01,6.810976497999999424e+01,4.441834682999999728e+00
8.209999999999999432e+01,7.049605413000000453e+01,4.456523467000000238e+00
8.229999999999999716e+01,5.839624434000000264e+01,3.963159646999999897e+00
8.250000000000000000e+01,6.833343130999999460e+01,4.371787237000000381e+00
8.270000000000000284e+01,6.772690645000000131e+01,4.343530943000000200e+00
8.290000000000000568e+01,6.467239754999999946e+01,4.189736377000000012e+00
8.309999999999999432e+01,6.698003656999999578e+01,4.286310850999999644e+00
8.329999999999999716e+01,7.486984619000000407e+01,4.537724929000000351e+00
8.350000000000000000e+01,6.157765030000000195e+01,4.000398221000000198e+00
8.370000000000000284e+01,5.955744702999999873e+01,3.966638008999999965e+00
8.390000000000000568e+01,6.683908230999999489e+01,4.294520881000000401e+00
8.409999999999999432e+01,6.649339460999999574e+01,4.193800403000000010e+00
8.429999999999999716e+01,6.330472342000000197e+01,4.117825114999999592e+00
8.450000000000000000e+01,6.200412589999999824e+01,4.091546140000000165e+00
8.470000000000000284e+01,6.858993809000000397e+01,4.426000377000000263e+00
8.490000000000000568e+01,6.410941133999999408e+01,4.233062623000000357e+00
8.509999999999999432e+01,6.813346034999999290e+01,4.382247909000000163e+00
8.529999999999999716e+01,6.858498348000000533e+01,4.454889048000000074e+00
8.550000000000000000e+01,6.701032773000000020e+01,4.243424644000000079e+00
8.570000000000000284e+01,6.604372555999999861e+01,4.278499210999999747e+00
8.590000000000000568e+01,6.700135770999999352e+01,4.225236838999999911e+00
8.609999999999999432e+01,6.347159833999999989e+01,4.128362272000000388e+00
8.629999999999999716e+01,6.869560581000000354e+01,4.394705647000000326e+00
8.650000000000000000e+01,7.004608650999999497e+01,4.470713145999999583e+00
8.670000000000000284e+01,6.643199785999999563e+01,4.275501397000000203e+00
8.690000000000000568e+01,6.085342714000000086e+01,4.047260175999999987e+00
8.709999999999999432e+01,6.928919037000000003e+01,4.384061284999999586e+00
8.729999999999999716e+01,7.087204941999999619e+01,4.431749371000000437e+00
8.750000000000000000e+01,6.781808805000000007e+01,4.395267761000000384e+00
8.770000000000000284e+01,7.236148296999999729e+01,4.463734592999999862e+00
8.790000000000000568e+01,6.633147784000000513e+01,4.236454171000000102e+00
8.809999999999999432e+01,6.448342667999999378e+01,4.171137127999999805e+00
8.829999999999999716e+01,6.036823136999999662e+01,4.020015708999999937e+00
8.850000000000000000e+01,6.433058470000000284e+01,4.151656735999999626e+00
8.870000000000000284e+01,6.800915987000000484e+01,4.303811781000000281e+00
8.890000000000000568e+01,6.238134181000000211e+01,4.122425499000000215e+00
8.909999999999999432e+01,7.290404730000000200e+01,4.500582224999999603e+00
8.929999999999999716e+01,6.507133683000000701e+01,4.301448856000000376e+00
8.950000000000000000e+01,7.109216544999999599e+01,4.421648381999999877e+00
8.970000000000000284e+01,6.841058227000000613e+01,4.267819749000000051e+00
8.990000000000000568e+01,6.522584976000000268e+01,4.151900545000000164e+00
9.009999999999999432e+01,6.440557843000000560e+01,4.178548025000000443e+00
9.029999999999999716e+01,7.114205214000000410e+01,4.397789032999999570e+00
9.050000000000000000e+01,6.652507950000000392e+01,4.271319616000000430e+00
9.070000000000000284e+01,7.104561065999999414e+01,4.333988731999999899e+00
9.090000000000000568e+01,6.061083450999999656e+01,4.060380001000000405e+00
9.109999999999999432e+01,6.930418220999999335e+01,4.307744675000000356e+00
9.129999999999999716e+01,6.587396187999999597e+01,4.234868057999999991e+00
9.150000000000000000e+01,5.764239843000000008e+01,3.951254373999999903e+00
9.170000000000000284e+01,7.199316767999999911e+01,4.456895150000000250e+00
9.190000000000000568e+01,7.205349194000000068e+01,4.361330759000000334e+00
9.209999999999999432e+01,6.292804091000000000e+01,4.036420380000000030e+00
9.229999999999999716e+01,6.699478295999999489e+01,4.257341847000000179e+00
9.250000000000000000e+01,7.621834721999999829e+01,4.514578943000000066e+00
9.270000000000000284e+01,6.694796083999999325e+01,4.143117206000000330e+00
9.290000000000000568e+01,7.993574746000000175e+01,4.459123081000000433e+00
9.309999999999999432e+01,8.296976286999999672e+01,4.600343177000000061e+00
9.329999999999999716e+01,7.756826868000000275e+01,4.284002843999999754e+00
9.350000000000000000e+01,8.792244908000000692e+01,4.586230307000000117e+00
9.370000000000000284e+01,7.731943673000000672e+01,4.370535587000000000e+00
9.390000000000000568e+01,7.036059509000000389e+01,4.212045844000000372e+00
9.409999999999999432e+01,7.805442078000000095e+01,4.410057794000000086e+00
9.429999999999999716e+01,6.707655667000000221e+01,4.209258012000000271e+00
9.450000000000000000e+01,7.351018041000000380e+01,4.418646544999999648e+00
9.470000000000000284e+01,6.454041419000000701e+01,4.127079109000000301e+00
9.490000000000000568e+01,6.431393151999999702e+01,4.141711914000000050e+00
9.509999999999999432e+01,7.202168733999999972e+01,4.459840913999999934e+00
9.529999999999999716e+01,6.535941585999999859e+01,4.153006064000000386e+00
9.550000000000000000e+01,6.872164051999999401e+01,4.376323809999999703e+00
9.570000000000000284e+01,7.296371983999999600e+01,4.434972508999999619e+00
9.590000000000000568e+01,6.819449668999999403e+01,4.358771389000000163e+00
9.609999999999999432e+01,5.696161984999999817e+01,3.933251119999999990e+00
9.629999999999999716e+01,6.842123621000000355e+01,4.341642826000000177e+00
9.650000000000000000e+01,6.220101908000000179e+01,4.065090030000000354e+00
9.670000000000000284e+01,6.502859886999999617e+01,4.215302569000000332e+00
9.690000000000000568e+01,6.628118039999999667e+01,4.218292317000000402e+00
9.709999999999999432e+01,7.962681347000000187e+01,4.796451067999999651e+00
9.729999999999999716e+01,6.611478137000000288e+01,4.197595065999999875e+00
9.750000000000000000e+01,7.073355535000000316e+01,4.418707571999999750e+00
9.770000000000000284e+01,6.667583731999999941e+01,4.325971844999999760e+00
9.790000000000000568e+01,6.610251415999999836e+01,4.236169416000000076e+00
9.809999999999999432e+01,6.898687065000000018e+01,4.332561487999999628e+00
9.829999999999999716e+01,6.834247164999999313e+01,4.358001961000000257e+00
9.850000000000000000e+01,6.969656016000000420e+01,4.417760171000000291e+00
9.870000000000000284e+01,6.279362291999999712e+01,4.192868042999999822e+00
9.890000000000000568e+01,6.154417990000000316e+01,4.018744514999999851e+00
9.909999999999999432e+01,6.849192610000000059e+01,4.330010274000000159e+00
9.929999999999999716e+01,6.616892527999999629e+01,4.272536371000000166e+00
9.950000000000000000e+01,6.367300903000000289e+01,4.138381736000000366e+00
9.970000000000000284e+01,7.041928885999999466e+01,4.373138062999999853e+00
9.990000000000000568e+01,8.161058997000000659e+01,4.843555549000000404e+00
