x_axis,Intensity,Error
1.009999999999999964e+01,1.188092719999999991e+00,3.695684411999999863e-01
1.030000000000000071e+01,1.995456329999999889e+00,6.549501143000000525e-01
1.050000000000000000e+01,1.995630537999999898e+00,6.386475082000000469e-01
1.069999999999999929e+01,3.545184582000000084e+00,8.428318173000000080e-01
1.090000000000000036e+01,6.000442293999999954e+00,1.098739327999999960e+00
1.109999999999999964e+01,7.483455630999999997e+00,1.291849323000000105e+00
1.130000000000000071e+01,1.304986088000000066e+01,1.672007602000000093e+00
1.150000000000000000e+01,1.953216998999999987e+01,2.098041879000000165e+00
1.169999999999999929e+01,3.405463208999999836e+01,2.920148850999999990e+00
1.190000000000000036e+01,3.408353501999999935e+01,2.955097942000000089e+00
1.209999999999999964e+01,3.392686496999999690e+01,2.903844841000000176e+00
1.230000000000000071e+01,2.136821253000000098e+01,2.082724588000000043e+00
1.250000000000000000e+01,8.351777355999999486e+00,1.186046063999999900e+00
1.269999999999999929e+01,2.369404564999999963e+00,4.732464713999999795e-01
1.290000000000000036e+01,3.448810307000000019e+00,6.468122818000000551e-01
1.309999999999999964e+01,7.443002437999999721e+00,1.003054523000000087e+00
1.330000000000000071e+01,1.248352052000000079e+01,1.285639052000000060e+00
1.350000000000000000e+01,1.791158293999999884e+01,1.504204311999999932e+00
1.369999999999999929e+01,2.737268728999999823e+01,2.049440414999999849e+00
1.390000000000000036e+01,2.561377347999999898e+01,2.015540199999999782e+00
1.409999999999999964e+01,1.610823010000000011e+01,1.509244849000000110e+00
1.430000000000000071e+01,7.999362560999999872e+00,9.256449069000000085e-01
1.450000000000000000e+01,2.524453716000000014e+00,4.906797244000000169e-01
1.469999999999999929e+01,7.295739518999999618e-01,1.981026398000000077e-01
1.490000000000000036e+01,5.653177601000000108e-01,6.377081369999999805e-02
1.509999999999999964e+01,8.254411496000000348e-01,2.389290806999999905e-01
1.530000000000000071e+01,5.696027876999999462e-01,1.331275789999999959e-01
1.550000000000000000e+01,6.346064919999999665e-01,1.524735432000000057e-01
1.569999999999999929e+01,6.886541658000000510e-01,1.495600263999999902e-01
1.590000000000000036e+01,5.941882922000000233e-01,1.187504892999999978e-01
1.610000000000000142e+01,5.895015828999999874e-01,1.280416477999999914e-01
1.630000000000000071e+01,6.943573892000000081e-01,2.198987608999999899e-01
1.650000000000000000e+01,5.672677676999999807e-01,6.776064292000000266e-02
1.669999999999999929e+01,4.768711856999999776e-01,5.929271069000000005e-02
1.689999999999999858e+01,5.599395962000000004e-01,1.255752596999999970e-01
1.710000000000000142e+01,4.953048957000000252e-01,5.951992611999999683e-02
1.730000000000000071e+01,5.446955378000000181e-01,1.117911510000000053e-01
1.750000000000000000e+01,4.992591464999999729e-01,5.785311089999999740e-02
1.769999999999999929e+01,7.066981109000000094e-01,7.460158115999999950e-02
1.789999999999999858e+01,7.442134863999999572e-01,1.763996371999999868e-01
1.810000000000000142e+01,6.457391220999999515e-01,1.601048988999999867e-01
1.830000000000000071e+01,1.133492930999999926e+00,4.213586140999999730e-01
1.850000000000000000e+01,1.200454342000000008e+00,2.869291586000000116e-01
1.869999999999999929e+01,1.834719541999999981e+00,5.714233147999999707e-01
1.889999999999999858e+01,3.888474464000000186e+00,7.410751493999999662e-01
1.910000000000000142e+01,8.671808873999999889e+00,1.289238566999999946e+00
1.930000000000000071e+01,1.352103593000000004e+01,1.615576048999999959e+00
1.950000000000000000e+01,2.293206567000000007e+01,2.283571482999999791e+00
1.969999999999999929e+01,2.482633081999999902e+01,2.333145255999999890e+00
1.989999999999999858e+01,2.205790521999999854e+01,2.204283375000000156e+00
2.010000000000000142e+01,1.324443029999999943e+01,1.603182003999999994e+00
2.030000000000000071e+01,3.154821623000000130e+00,6.121942940000000277e-01
2.050000000000000000e+01,1.309251123999999988e+00,3.579139744000000012e-01
2.069999999999999929e+01,5.637656009999999496e-01,6.491992537000000618e-02
2.089999999999999858e+01,5.665218506000000431e-01,8.380266103000000300e-02
2.110000000000000142e+01,6.071807675000000515e-01,6.710116656999999540e-02
2.130000000000000071e+01,7.425981047999999918e-01,2.980052496999999745e-01
2.150000000000000000e+01,5.099039727999999938e-01,7.573016269000000522e-02
2.169999999999999929e+01,7.869264518999999902e-01,2.325108408999999876e-01
2.189999999999999858e+01,1.078363181000000059e+00,3.187837103999999755e-01
2.210000000000000142e+01,2.173101181999999909e+00,6.740083507999999890e-01
2.230000000000000071e+01,2.124224636000000110e+00,5.586369891000000365e-01
2.250000000000000000e+01,1.107104436000000014e+01,2.008365019999999834e+00
2.269999999999999929e+01,2.099031927000000053e+01,2.783197620000000150e+00
2.289999999999999858e+01,2.756293505000000010e+01,3.319312161000000039e+00
2.310000000000000142e+01,3.279501438999999863e+01,3.514096592000000019e+00
2.330000000000000071e+01,2.803849891999999855e+01,3.206945206999999964e+00
2.350000000000000000e+01,2.471809114999999935e+01,2.892509806000000072e+00
2.369999999999999929e+01,1.385563740999999993e+01,1.755857277999999910e+00
2.389999999999999858e+01,1.284317957000000021e+01,1.547650508999999897e+00
2.410000000000000142e+01,1.296774175999999912e+01,1.203753448999999920e+00
2.430000000000000071e+01,9.470839834999999596e+00,1.142034924000000062e+00
2.450000000000000000e+01,6.382474682999999871e+00,8.022243192000000356e-01
2.469999999999999929e+01,4.520555091000000303e+00,5.738184298999999822e-01
2.489999999999999858e+01,1.788226555000000051e+00,3.530051799000000212e-01
2.510000000000000142e+01,9.525984214999999589e-01,2.766173715999999949e-01
2.530000000000000071e+01,5.217321826999999912e-01,7.942507095999999656e-02
2.550000000000000000e+01,1.513997994999999985e+00,6.871596759000000443e-01
2.569999999999999929e+01,9.664793423999999966e-01,5.086147115000000385e-01
2.589999999999999858e+01,5.613726794000000186e-01,6.363860537000000372e-02
2.610000000000000142e+01,5.506737422999999909e-01,6.488763590000000414e-02
2.630000000000000071e+01,7.240156809000000138e-01,1.954197112000000125e-01
2.650000000000000000e+01,7.410966808000000183e-01,1.556753176000000016e-01
2.669999999999999929e+01,6.917983865000000288e-01,1.093198674000000065e-01
2.689999999999999858e+01,7.951661959000000390e-01,1.358112541000000006e-01
2.710000000000000142e+01,1.432219826000000085e+00,4.304679378999999861e-01
2.730000000000000071e+01,2.257801301000000205e+00,3.674951283999999818e-01
2.750000000000000000e+01,3.326099042000000061e+00,4.429706664999999988e-01
2.769999999999999929e+01,4.509777205999999872e+00,5.043179437000000487e-01
2.789999999999999858e+01,6.290039926000000392e+00,6.614357155000000210e-01
2.810000000000000142e+01,6.375526198000000200e+00,6.824951183999999893e-01
2.830000000000000071e+01,6.099205432999999843e+00,6.886253536999999980e-01
2.850000000000000000e+01,2.868367826000000065e+00,4.392171272000000015e-01
2.869999999999999929e+01,1.138792169000000021e+00,2.064400543999999893e-01
2.889999999999999858e+01,8.449291422000000384e-01,1.348182975999999977e-01
2.910000000000000142e+01,8.629021829999999893e-01,2.747411355000000110e-01
2.930000000000000071e+01,8.572362270000000173e-01,2.065146639000000062e-01
2.950000000000000000e+01,2.135732895999999936e+00,5.634005642999999619e-01
2.969999999999999929e+01,4.595288133999999580e+00,9.977336882999999768e-01
2.989999999999999858e+01,5.366198962000000350e+00,1.100759038000000078e+00
3.010000000000000142e+01,1.295681908000000071e+01,1.826642142000000080e+00
3.030000000000000071e+01,1.380994437999999924e+01,1.948592388000000009e+00
3.050000000000000000e+01,1.687330581999999879e+01,2.133381568999999978e+00
3.069999999999999929e+01,1.999324508999999850e+01,2.345724063000000026e+00
3.089999999999999858e+01,2.121031122000000124e+01,2.395430363000000007e+00
3.110000000000000142e+01,1.986238973000000030e+01,2.314363746999999805e+00
3.130000000000000071e+01,1.954244012999999924e+01,2.236263705999999907e+00
3.150000000000000000e+01,1.614222153000000048e+01,2.072917283999999860e+00
3.169999999999999929e+01,1.229932179000000048e+01,1.778982013999999889e+00
3.189999999999999858e+01,6.930737119999999862e+00,1.267715788000000066e+00
3.210000000000000142e+01,3.526214233000000142e+00,8.087185186999999997e-01
3.229999999999999716e+01,1.231031028000000083e+00,3.265805164000000205e-01
3.250000000000000000e+01,1.380512050000000102e+00,4.294360651999999945e-01
3.270000000000000284e+01,6.865365045000000332e-01,7.092370811999999802e-02
3.289999999999999858e+01,6.777918979999999483e-01,6.931876708999999692e-02
3.310000000000000142e+01,7.547785709000000010e-01,1.532059789000000116e-01
3.329999999999999716e+01,1.113153759000000020e+00,3.229483224999999957e-01
3.350000000000000000e+01,1.639639952000000012e+00,4.311395176999999745e-01
3.370000000000000284e+01,4.538387839000000312e+00,8.709937146999999769e-01
3.389999999999999858e+01,4.841197767999999790e+00,1.003360932999999955e+00
3.410000000000000142e+01,6.772663302999999857e+00,1.135676785000000022e+00
3.429999999999999716e+01,9.990969511999999497e+00,1.514198456999999998e+00
3.450000000000000000e+01,1.516387907000000013e+01,1.928562523000000084e+00
3.470000000000000284e+01,1.059968512999999923e+01,1.567354638000000078e+00
3.489999999999999858e+01,1.064710687000000000e+01,1.564833982999999984e+00
3.510000000000000142e+01,5.845789648000000227e+00,1.141908396999999908e+00
3.529999999999999716e+01,2.175685511999999822e+00,5.861251706000000228e-01
3.550000000000000000e+01,2.214958842000000150e+00,5.052777229999999564e-01
3.570000000000000284e+01,1.768570871000000100e+00,4.104216130000000184e-01
3.589999999999999858e+01,2.943134537000000162e+00,5.146776177999999868e-01
3.610000000000000142e+01,6.949127887999999587e+00,1.110202858999999931e+00
3.629999999999999716e+01,1.101411616999999943e+01,1.333278428000000071e+00
3.650000000000000000e+01,1.572408472000000046e+01,1.683933310000000017e+00
3.670000000000000284e+01,1.658803926999999945e+01,1.776060264000000055e+00
3.689999999999999858e+01,1.192244716999999987e+01,1.486525850000000037e+00
3.710000000000000142e+01,1.028682283999999925e+01,1.325759088000000085e+00
3.729999999999999716e+01,9.264776347999999828e+00,1.209912689999999902e+00
3.750000000000000000e+01,3.890895019999999871e+00,5.883230149999999492e-01
3.770000000000000284e+01,1.725781154999999956e+00,3.044437405000000041e-01
3.789999999999999858e+01,1.876009857999999975e+00,3.612577643000000061e-01
3.810000000000000142e+01,6.613002713000000199e-01,8.541344554999999450e-02
3.829999999999999716e+01,1.081656664000000045e+00,4.888993318000000032e-01
3.850000000000000000e+01,8.242525681000000271e-01,9.133888886999999568e-02
3.870000000000000284e+01,7.425979500999999594e-01,1.228517605999999984e-01
3.889999999999999858e+01,7.793653513999999616e-01,1.299064689999999966e-01
3.910000000000000142e+01,1.243141134999999897e+00,2.611820489000000189e-01
3.929999999999999716e+01,1.444287032999999942e+00,2.434381089000000054e-01
3.950000000000000000e+01,3.291768681999999835e+00,5.552505461000000198e-01
3.970000000000000284e+01,4.228401067000000069e+00,6.104560406000000272e-01
3.989999999999999858e+01,5.571917966000000000e+00,7.586447374000000465e-01
4.010000000000000142e+01,5.606671394000000141e+00,7.582042028000000045e-01
4.029999999999999716e+01,4.547686285000000161e+00,6.689429808000000310e-01
4.050000000000000000e+01,3.508215131000000042e+00,5.577447615999999719e-01
4.070000000000000284e+01,2.792561475999999931e+00,7.164652656000000119e-01
4.089999999999999858e+01,2.886334504000000134e+00,6.568191706999999546e-01
4.110000000000000142e+01,3.743649400999999877e+00,8.845904574999999825e-01
4.129999999999999716e+01,6.607054849999999924e+00,1.323222985999999990e+00
4.150000000000000000e+01,1.072000324000000049e+01,1.969651167999999952e+00
4.170000000000000284e+01,1.647638878000000062e+01,2.413527487000000082e+00
4.189999999999999858e+01,1.937377177999999844e+01,2.621340317000000031e+00
4.210000000000000142e+01,2.172928260999999850e+01,2.633603416999999780e+00
4.229999999999999716e+01,1.606447135000000159e+01,2.048289438999999934e+00
4.250000000000000000e+01,1.991464347000000146e+01,2.330211776000000068e+00
4.270000000000000284e+01,1.441599798999999926e+01,1.911565109999999956e+00
4.289999999999999858e+01,1.222163899999999970e+01,1.583373310999999894e+00
4.310000000000000142e+01,6.759678145999999721e+00,1.128225368000000062e+00
4.329999999999999716e+01,4.897288091000000065e+00,8.674639352999999886e-01
4.350000000000000000e+01,3.736326161000000035e+00,7.391827539999999974e-01
4.370000000000000284e+01,1.964170049999999890e+00,4.056684689999999760e-01
4.389999999999999858e+01,1.848415193999999984e+00,4.913386746999999777e-01
4.410000000000000142e+01,2.468703075000000080e+00,5.850522097999999449e-01
4.429999999999999716e+01,3.447110411000000152e+00,6.856305520000000042e-01
4.450000000000000000e+01,4.343926361000000291e+00,8.042415031999999853e-01
4.470000000000000284e+01,5.060509103000000231e+00,8.961524033000000111e-01
4.489999999999999858e+01,7.626602157999999854e+00,1.177228433000000019e+00
4.510000000000000142e+01,7.402555861999999820e+00,1.121387635999999910e+00
4.529999999999999716e+01,6.424625630000000420e+00,1.035630762000000038e+00
4.550000000000000000e+01,6.411850128000000204e+00,1.091807010999999994e+00
4.570000000000000284e+01,4.448028948000000149e+00,8.410361296999999681e-01
4.589999999999999858e+01,4.036636645999999828e+00,8.180362503000000451e-01
4.610000000000000142e+01,5.072007199999999827e+00,8.800853028999999772e-01
4.629999999999999716e+01,6.792359452000000353e+00,1.045827486999999945e+00
4.650000000000000000e+01,8.520551422000000485e+00,1.241111969999999953e+00
4.670000000000000284e+01,8.726195436999999444e+00,1.233006711000000033e+00
4.689999999999999858e+01,1.129670134999999931e+01,1.434492574000000076e+00
4.710000000000000142e+01,8.473722148000000232e+00,1.225726005999999924e+00
4.729999999999999716e+01,9.917878318999999721e+00,1.311012300000000019e+00
4.750000000000000000e+01,8.804622974000000823e+00,1.224441724999999925e+00
4.770000000000000284e+01,5.306296104000000291e+00,8.666267404999999924e-01
4.789999999999999858e+01,3.624487017999999949e+00,6.548980327000000212e-01
4.810000000000000142e+01,3.150570780999999876e+00,6.284159105000000078e-01
4.829999999999999716e+01,1.818107326000000024e+00,4.483346806999999878e-01
4.850000000000000000e+01,2.734642645000000094e+00,5.560512583000000175e-01
4.870000000000000284e+01,2.105529785999999959e+00,5.754123188999999972e-01
4.889999999999999858e+01,1.728193375000000032e+00,2.641385497000000027e-01
4.910000000000000142e+01,1.390533352000000056e+00,2.154994345000000033e-01
4.929999999999999716e+01,2.120780622999999920e+00,3.266764131000000071e-01
4.950000000000000000e+01,3.159580473000000111e+00,3.889929288999999790e-01
4.970000000000000284e+01,1.955131600000000081e+00,3.258019090000000006e-01
4.989999999999999858e+01,2.643607005999999870e+00,4.878401068000000063e-01
5.010000000000000142e+01,3.842972064000000021e+00,6.146064064999999799e-01
5.029999999999999716e+01,4.345458333999999923e+00,7.777067076000000467e-01
5.050000000000000000e+01,7.119061524000000141e+00,1.062766459000000108e+00
5.070000000000000284e+01,8.980470535000000254e+00,1.167961387999999934e+00
5.089999999999999858e+01,1.218486191000000041e+01,1.373998841999999998e+00
5.110000000000000142e+01,1.313008808000000016e+01,1.438620065999999920e+00
5.129999999999999716e+01,1.424366032000000004e+01,1.528163477999999964e+00
5.150000000000000000e+01,1.258239256999999967e+01,1.357673163000000072e+00
5.170000000000000284e+01,1.309530434000000021e+01,1.392913827000000104e+00
5.189999999999999858e+01,1.289994641000000009e+01,1.442716453999999926e+00
5.210000000000000142e+01,1.050811372000000077e+01,1.289839229999999892e+00
5.229999999999999716e+01,7.261226341000000417e+00,1.099458030000000086e+00
5.250000000000000000e+01,5.401379698999999590e+00,9.061426952000000146e-01
5.270000000000000284e+01,3.262210341999999930e+00,8.098586735999999675e-01
5.289999999999999858e+01,5.064793288999999810e+00,1.075967509999999905e+00
5.310000000000000142e+01,4.684695771000000342e+00,1.099038501999999973e+00
5.329999999999999716e+01,6.525827699999999787e+00,1.350967226999999937e+00
5.350000000000000000e+01,6.555264075000000190e+00,1.354645721000000025e+00
5.370000000000000284e+01,6.740522998000000321e+00,1.411628585999999963e+00
5.389999999999999858e+01,5.998857466999999666e+00,1.253161653000000042e+00
5.410000000000000142e+01,9.648384982999999693e+00,1.748664830999999920e+00
5.429999999999999716e+01,1.054805561000000047e+01,1.801862346000000059e+00
5.450000000000000000e+01,9.402786150000000731e+00,1.623887749999999963e+00
5.470000000000000284e+01,7.349662641000000107e+00,1.286198525999999953e+00
5.489999999999999858e+01,1.341809699999999950e+01,1.806306356999999974e+00
5.510000000000000142e+01,1.202891555000000068e+01,1.725371605000000086e+00
5.529999999999999716e+01,1.369356858999999993e+01,1.867499016000000012e+00
5.550000000000000000e+01,8.796079466000000124e+00,1.376640440000000076e+00
5.570000000000000284e+01,1.178933007999999916e+01,1.629615907999999891e+00
5.589999999999999858e+01,8.976900338000000090e+00,1.481453300000000084e+00
5.610000000000000142e+01,6.449926860999999789e+00,1.141984389999999960e+00
5.629999999999999716e+01,5.963039703999999830e+00,1.098644249999999989e+00
5.650000000000000000e+01,4.192650750000000315e+00,8.855025255999999789e-01
5.670000000000000284e+01,2.763885774999999878e+00,6.249270742000000434e-01
5.689999999999999858e+01,2.860212476000000059e+00,8.017587339999999729e-01
5.710000000000000142e+01,1.355721482999999949e+00,1.882705621999999912e-01
5.729999999999999716e+01,1.530004292999999960e+00,4.986678580000000194e-01
5.750000000000000000e+01,1.954997198000000047e+00,4.081294317999999977e-01
5.770000000000000284e+01,1.921456288999999984e+00,3.689246090000000144e-01
5.789999999999999858e+01,2.526502890999999806e+00,4.416714949000000168e-01
5.810000000000000142e+01,2.249794989000000189e+00,3.604795725000000117e-01
5.829999999999999716e+01,2.528591020999999994e+00,4.194497746999999999e-01
5.850000000000000000e+01,2.724842283000000087e+00,4.925911277999999727e-01
5.870000000000000284e+01,5.068869328999999979e+00,7.497512103000000261e-01
5.889999999999999858e+01,5.941198249000000153e+00,8.669045327000000078e-01
5.910000000000000142e+01,6.980113978000000330e+00,9.482084020000000057e-01
5.929999999999999716e+01,7.364295496999999635e+00,9.620772389999999730e-01
5.950000000000000000e+01,9.461206091999999401e+00,1.109470683999999929e+00
5.970000000000000284e+01,9.000797386000000344e+00,1.115132435000000033e+00
5.989999999999999858e+01,9.614024330999999535e+00,1.162456179000000089e+00
6.010000000000000142e+01,9.037740939000000751e+00,1.194156133999999980e+00
6.029999999999999716e+01,9.014609830999999573e+00,1.150692803999999958e+00
6.050000000000000000e+01,5.845477814999999744e+00,8.516890441000000145e-01
6.070000000000000284e+01,5.159450312999999788e+00,7.671372775000000477e-01
6.089999999999999858e+01,6.014145515000000053e+00,8.453713846999999504e-01
6.110000000000000142e+01,4.215975036999999759e+00,6.328603243999999517e-01
6.129999999999999716e+01,4.700786303000000110e+00,6.693843958999999844e-01
6.150000000000000000e+01,5.167884725000000401e+00,7.519348839999999701e-01
6.170000000000000284e+01,5.683831102000000079e+00,7.943740918999999678e-01
6.189999999999999858e+01,5.884511052999999769e+00,9.082418917000000258e-01
6.210000000000000142e+01,7.260966151999999951e+00,1.004604703000000043e+00
6.229999999999999716e+01,8.088549639000000013e+00,1.125902326000000064e+00
6.250000000000000000e+01,8.264926687999999189e+00,1.230374475999999939e+00
6.270000000000000284e+01,6.047698694000000152e+00,9.923392546999999508e-01
6.289999999999999858e+01,9.666062016999999784e+00,1.296556787999999960e+00
6.310000000000000142e+01,1.085333186000000083e+01,1.520960408999999958e+00
6.329999999999999716e+01,8.592155612999999192e+00,1.245400909000000000e+00
6.350000000000000000e+01,9.687834699999999799e+00,1.291045986000000090e+00
6.370000000000000284e+01,9.517795916000000744e+00,1.375618353999999988e+00
6.389999999999999858e+01,8.999141977000000736e+00,1.311958525999999958e+00
6.409999999999999432e+01,8.758888672999999514e+00,1.521152226999999968e+00
6.429999999999999716e+01,6.608013665999999731e+00,1.146710281999999914e+00
6.450000000000000000e+01,4.620638516999999723e+00,8.493043676999999514e-01
6.470000000000000284e+01,3.979102951000000221e+00,7.169527473000000262e-01
6.490000000000000568e+01,3.160256036999999907e+00,5.822551598999999856e-01
6.509999999999999432e+01,3.505714118000000212e+00,5.700138698000000170e-01
6.529999999999999716e+01,5.024749253999999610e+00,8.323063817000000419e-01
6.550000000000000000e+01,4.933972478000000272e+00,8.636303365999999926e-01
6.570000000000000284e+01,4.794407718000000429e+00,8.120913923999999451e-01
6.590000000000000568e+01,4.958767893000000093e+00,8.361752914000000203e-01
6.609999999999999432e+01,5.120007972999999879e+00,8.685084737999999582e-01
6.629999999999999716e+01,7.851975942000000153e+00,1.171267998999999893e+00
6.650000000000000000e+01,9.588054066999999847e+00,1.357298074000000021e+00
6.670000000000000284e+01,1.049559696000000031e+01,1.388081949000000037e+00
6.690000000000000568e+01,1.036350050000000067e+01,1.465631517000000050e+00
6.709999999999999432e+01,1.402757715000000083e+01,1.685647005999999948e+00
6.729999999999999716e+01,1.250259654000000076e+01,1.627992329000000016e+00
6.750000000000000000e+01,1.262532923000000018e+01,1.648077143999999938e+00
6.770000000000000284e+01,7.504889118000000359e+00,1.268025787000000015e+00
6.790000000000000568e+01,9.498418812000000599e+00,1.417803058000000060e+00
6.809999999999999432e+01,8.733779867999999169e+00,1.414281648000000002e+00
6.829999999999999716e+01,5.415569649000000041e+00,1.051733291999999986e+00
6.850000000000000000e+01,6.804003980000000062e+00,1.102915123000000053e+00
6.870000000000000284e+01,4.827164364999999790e+00,9.951338254999999577e-01
6.890000000000000568e+01,6.103981274999999762e+00,9.830569667999999872e-01
6.909999999999999432e+01,4.354217199999999899e+00,8.194522927999999817e-01
6.929999999999999716e+01,4.830847458000000039e+00,8.134086777000000268e-01
6.950000000000000000e+01,5.144022313999999874e+00,9.297448018999999730e-01
6.970000000000000284e+01,3.463629200999999824e+00,6.402067657000000134e-01
6.990000000000000568e+01,4.913465115000000161e+00,9.752292249999999774e-01
7.009999999999999432e+01,4.872422740000000196e+00,9.811028687999999720e-01
7.029999999999999716e+01,5.998525777000000225e+00,1.078178359999999891e+00
7.050000000000000000e+01,5.343444778000000284e+00,1.064235327000000009e+00
7.070000000000000284e+01,9.188258156999999926e+00,1.652491453999999971e+00
7.090000000000000568e+01,5.364764905000000361e+00,1.061541850000000009e+00
7.109999999999999432e+01,5.574957194999999643e+00,1.118532687000000081e+00
7.129999999999999716e+01,4.516082410000000102e+00,9.280081096000000196e-01
7.150000000000000000e+01,3.730998840999999899e+00,7.231811652999999840e-01
7.170000000000000284e+01,2.413939544000000215e+00,5.924375550999999573e-01
7.190000000000000568e+01,2.987480163999999938e+00,7.073699171999999757e-01
7.209999999999999432e+01,2.204887767999999859e+00,4.481673420999999768e-01
7.229999999999999716e+01,3.162547964999999905e+00,6.966182593999999950e-01
7.250000000000000000e+01,2.591994273000000071e+00,4.759144486999999923e-01
7.270000000000000284e+01,2.256239306999999972e+00,4.101845002999999767e-01
7.290000000000000568e+01,2.637058263000000125e+00,5.571451634999999847e-01
7.309999999999999432e+01,1.523601562999999937e+00,2.839933076000000223e-01
7.329999999999999716e+01,2.254748911000000078e+00,6.092563986000000265e-01
7.350000000000000000e+01,2.108490070999999855e+00,4.133244215999999915e-01
7.370000000000000284e+01,1.606769294000000015e+00,3.407611286000000184e-01
7.390000000000000568e+01,1.659443524000000059e+00,3.514280200000000076e-01
7.409999999999999432e+01,1.303950061000000105e+00,3.066637722000000177e-01
7.429999999999999716e+01,1.313336969000000076e+00,2.753346676000000270e-01
7.450000000000000000e+01,8.885175590999999651e-01,1.900568764999999993e-01
7.470000000000000284e+01,8.456576986999999601e-01,1.657006849999999865e-01
7.490000000000000568e+01,7.021933021999999802e-01,7.134343372000000183e-02
7.509999999999999432e+01,5.924591007999999714e-01,6.665239280000000155e-02
7.529999999999999716e+01,6.821780882000000323e-01,7.007562505999999358e-02
7.550000000000000000e+01,7.528371003999999589e-01,7.772642980999999729e-02
7.570000000000000284e+01,6.224156820999999784e-01,7.506173031000000495e-02
7.590000000000000568e+01,8.880493323999999467e-01,2.707292277000000191e-01
7.609999999999999432e+01,7.450149040000000333e-01,1.712192429000000127e-01
7.629999999999999716e+01,6.630492027000000066e-01,6.733635125999999638e-02
7.650000000000000000e+01,6.442201099000000042e-01,6.803766422000000202e-02
7.670000000000000284e+01,5.916005063999999480e-01,6.397266426999999311e-02
7.690000000000000568e+01,6.009225056000000453e-01,1.201868898000000019e-01
7.709999999999999432e+01,6.932600738999999956e-01,7.147595643000000110e-02
7.729999999999999716e+01,6.274335904000000186e-01,9.711891261999999747e-02
7.750000000000000000e+01,7.675180169999999968e-01,8.296640960999999981e-02
7.770000000000000284e+01,7.463543360000000071e-01,7.754409710000000067e-02
7.790000000000000568e+01,8.725217399000000373e-01,1.742300069999999923e-01
7.809999999999999432e+01,6.670381586000000418e-01,6.951606614999999989e-02
7.829999999999999716e+01,6.162009482000000427e-01,6.581909911000000113e-02
7.850000000000000000e+01,8.518297880999999849e-01,2.834724076999999842e-01
7.870000000000000284e+01,6.857205602000000511e-01,7.086333791000000437e-02
7.890000000000000568e+01,7.933257589000000110e-01,1.634890599000000111e-01
7.909999999999999432e+01,6.427464548000000333e-01,6.786955527999999349e-02
7.929999999999999716e+01,6.268457484999999663e-01,6.746290837000000484e-02
7.950000000000000000e+01,6.954574498000000160e-01,7.116654447999999633e-02
7.970000000000000284e+01,6.743119120999999661e-01,6.828661211000000564e-02
7.990000000000000568e+01,5.363447177000000288e-01,6.176379453999999991e-02
8.009999999999999432e+01,5.735066682999999665e-01,6.161157711000000287e-02
8.029999999999999716e+01,6.602137354999999541e-01,7.714946715999999871e-02
8.050000000000000000e+01,5.994931708999999831e-01,6.565471589999999358e-02
8.070000000000000284e+01,6.643768319999999727e-01,6.811312994000000287e-02
8.090000000000000568e+01,6.307975528000000498e-01,7.072231629000000352e-02
8.109999999999999432e+01,6.776933574000000293e-01,7.090790023000000108e-02
8.129999999999999716e+01,7.010738115000000326e-01,7.355961099999999697e-02
8.150000000000000000e+01,7.742997606000000532e-01,1.511044941999999947e-01
8.170000000000000284e+01,7.670297088999999957e-01,7.582764665999999765e-02
8.190000000000000568e+01,7.990941780000000438e-01,7.678796057999999480e-02
8.209999999999999432e+01,5.773804783000000551e-01,6.558064772999999681e-02
8.229999999999999716e+01,6.050177010999999716e-01,6.611158854000000196e-02
8.250000000000000000e+01,8.122559911000000188e-01,2.236215477000000063e-01
8.270000000000000284e+01,6.848120036000000521e-01,7.230968441000000524e-02
8.290000000000000568e+01,1.161708124000000009e+00,5.528829548999999455e-01
8.309999999999999432e+01,7.217299628000000133e-01,7.181393685999999665e-02
8.329999999999999716e+01,5.859670456000000138e-01,6.487648281999999766e-02
8.350000000000000000e+01,6.920051006999999865e-01,7.555838109000000136e-02
8.370000000000000284e+01,7.138298811000000077e-01,7.194145883999999991e-02
8.390000000000000568e+01,5.849285454999999523e-01,6.620910939000000661e-02
8.409999999999999432e+01,6.693923460999999797e-01,6.967028814999999542e-02
8.429999999999999716e+01,8.257730973000000363e-01,2.299899303999999867e-01
8.450000000000000000e+01,6.383261582000000489e-01,6.905697355999999842e-02
8.470000000000000284e+01,6.568521926000000510e-01,7.033403464000000105e-02
8.490000000000000568e+01,6.788431002999999464e-01,6.931681738999999343e-02
8.509999999999999432e+01,5.796147786999999996e-01,6.386647285999999535e-02
8.529999999999999716e+01,6.451215818000000102e-01,6.891362043000000270e-02
8.550000000000000000e+01,6.879320327000000290e-01,7.960277738000000325e-02
8.570000000000000284e+01,7.350093053999999793e-01,7.348034140999999686e-02
8.590000000000000568e+01,5.086999050999999605e-01,6.034282044000000012e-02
8.609999999999999432e+01,6.577074132000000350e-01,7.048736731999999394e-02
8.629999999999999716e+01,8.783883153000000554e-01,1.476454835000000076e-01
8.650000000000000000e+01,6.908136691999999801e-01,7.172903708000000211e-02
8.670000000000000284e+01,8.359159565999999542e-01,7.963912079000000366e-02
8.690000000000000568e+01,5.961039312000000479e-01,6.389690558999999714e-02
8.709999999999999432e+01,7.856076886999999731e-01,7.585985666000000238e-02
8.729999999999999716e+01,6.502419245999999653e-01,6.930754946000000638e-02
8.750000000000000000e+01,6.379336554000000215e-01,6.938297955000000128e-02
8.770000000000000284e+01,6.035502606000000547e-01,6.597682472999999437e-02
8.790000000000000568e+01,7.196715688999999472e-01,7.589998201000000555e-02
8.809999999999999432e+01,9.454548445999999551e-01,1.991291340000000132e-01
8.829999999999999716e+01,6.975480737999999459e-01,7.105116083000000138e-02
8.850000000000000000e+01,5.522004989000000030e-01,6.441934405999999447e-02
8.870000000000000284e+01,4.939576498000000093e-01,5.959701000999999970e-02
8.890000000000000568e+01,7.062516252999999633e-01,8.212409461000000355e-02
8.909999999999999432e+01,5.887438569999999816e-01,6.428210327000000168e-02
8.929999999999999716e+01,7.248546356999999718e-01,1.321532213000000122e-01
8.950000000000000000e+01,7.011474722999999631e-01,7.188403865999999642e-02
8.970000000000000284e+01,7.235797121999999471e-01,7.401946207000000000e-02
8.990000000000000568e+01,7.276255395999999820e-01,7.303869742999999359e-02
9.009999999999999432e+01,6.888609828999999740e-01,7.946813318999999820e-02
9.029999999999999716e+01,6.549517585999999891e-01,6.834015273999999307e-02
9.050000000000000000e+01,7.861009605000000011e-01,8.054534007999999967e-02
9.070000000000000284e+01,9.601174670000000022e-01,2.316311498999999996e-01
9.090000000000000568e+01,5.719275888000000529e-01,6.259433628999999666e-02
9.109999999999999432e+01,6.943696945999999759e-01,8.416998096000000151e-02
9.129999999999999716e+01,6.536868894999999791e-01,1.132612598999999942e-01
9.150000000000000000e+01,7.531420058000000139e-01,9.128017264000000408e-02
9.170000000000000284e+01,6.463304493999999512e-01,6.884444582000000257e-02
9.190000000000000568e+01,6.906482269999999479e-01,7.049357053999999456e-02
9.209999999999999432e+01,7.408350853999999819e-01,7.317232325000000426e-02
9.229999999999999716e+01,6.137849936999999478e-01,6.478846239999999645e-02
9.250000000000000000e+01,5.796808018000000340e-01,6.338954064000000554e-02
9.270000000000000284e+01,6.377607038000000506e-01,6.753846890999999630e-02
9.290000000000000568e+01,1.271811218000000077e+00,5.246905874999999719e-01
9.309999999999999432e+01,6.386474144999999547e-01,6.783784553999999689e-02
9.329999999999999716e+01,5.949383231999999522e-01,6.449136470999999871e-02
9.350000000000000000e+01,6.738166693999999568e-01,6.973884100999999669e-02
9.370000000000000284e+01,7.692178691000000068e-01,7.794855716000000101e-02
9.390000000000000568e+01,7.683956250000000265e-01,7.713623683999999703e-02
9.409999999999999432e+01,9.710873695999999722e-01,2.857711345000000236e-01
9.429999999999999716e+01,7.044159925999999849e-01,7.004799683000000055e-02
9.450000000000000000e+01,6.736830997999999626e-01,7.004479180000000582e-02
9.470000000000000284e+01,8.244922596000000548e-01,2.249197198000000009e-01
9.490000000000000568e+01,4.965287337000000023e-01,5.689828051000000303e-02
9.509999999999999432e+01,7.246448559999999484e-01,7.226224400000000325e-02
9.529999999999999716e+01,6.854735358000000334e-01,7.297498282999999308e-02
9.550000000000000000e+01,6.795412862999999914e-01,7.204109371000000372e-02
9.570000000000000284e+01,6.236434883999999457e-01,6.731661523000000147e-02
9.590000000000000568e+01,6.971319786999999879e-01,7.161074468000000470e-02
9.609999999999999432e+01,6.031510127000000443e-01,6.673117942999999552e-02
9.629999999999999716e+01,5.780602446000000505e-01,6.386595439999999402e-02
9.650000000000000000e+01,7.087343799999999971e-01,1.061172204000000036e-01
9.670000000000000284e+01,5.925300934999999658e-01,6.416595192000000558e-02
9.690000000000000568e+01,6.679237663000000547e-01,6.915163522999999424e-02
9.709999999999999432e+01,6.872528781000000198e-01,7.035357007999999690e-02
9.729999999999999716e+01,8.048371211999999497e-01,2.438021022000000093e-01
9.750000000000000000e+01,7.868994303999999884e-01,7.734291725000000395e-02
9.770000000000000284e+01,6.206903863999999604e-01,6.664427457999999582e-02
9.790000000000000568e+01,7.279666781000000420e-01,7.258477239999999719e-02
9.809999999999999432e+01,6.048587814000000451e-01,6.429181682000000009e-02
9.829999999999999716e+01,7.886736270999999965e-01,7.654139620000000033e-02
9.850000000000000000e+01,6.879330980000000206e-01,7.109802006000000285e-02
9.870000000000000284e+01,7.242402360999999900e-01,7.401551005999999766e-02
9.890000000000000568e+01,6.847111456000000151e-01,7.012824146000000425e-02
9.909999999999999432e+01,6.112332163000000484e-01,6.608848791999999417e-02
9.929999999999999716e+01,8.543875090000000450e-01,1.648948752000000129e-01
9.950000000000000000e+01,7.782786846000000480e-01,7.563536825000000130e-02
9.970000000000000284e+01,7.130651493999999868e-01,7.102025013000000386e-02
9.990000000000000568e+01,6.669393018999999478e-01,9.753018338999999703e-02
