x_axis,Intensity,Error
1.009999999999999964e+01,2.007262825999999833e+00,1.557170994999999891e+00
1.030000000000000071e+01,5.777673895999999587e+00,3.260538155999999965e+00
1.050000000000000000e+01,1.362852374000000033e+00,8.870994363999999965e-01
1.069999999999999929e+01,1.310825525000000047e+00,9.652123387000000054e-01
1.090000000000000036e+01,2.826352677000000035e+00,2.172365452999999835e+00
1.109999999999999964e+01,7.175311267999999743e-01,6.468602347999999891e-01
1.130000000000000071e+01,2.895732404999999954e+00,2.030196844999999861e+00
1.150000000000000000e+01,8.129861102999999645e+00,4.967895532000000003e+00
1.169999999999999929e+01,2.472537167000000036e+00,1.771969004000000014e+00
1.190000000000000036e+01,6.785084828999999651e+00,4.259711996000000056e+00
1.209999999999999964e+01,2.584941106000000044e+00,1.990717225000000035e+00
1.230000000000000071e+01,8.944425548999999975e+00,4.833590050999999832e+00
1.250000000000000000e+01,1.372583198999999921e+00,1.180982694000000111e+00
1.269999999999999929e+01,1.550491878999999962e+00,1.635563145999999968e+00
1.290000000000000036e+01,9.297969761999999236e-03,6.806759402000000028e-03
1.309999999999999964e+01,4.147721069000000149e+00,2.267989238000000185e+00
1.330000000000000071e+01,7.353302527000000310e+00,5.143645656000000344e+00
1.350000000000000000e+01,3.048304089000000161e+00,2.390214080999999879e+00
1.369999999999999929e+01,6.706628688000000338e+00,4.957510037999999675e+00
1.390000000000000036e+01,8.015890109000000763e+00,6.068962141000000088e+00
1.409999999999999964e+01,1.539739991000000090e-04,1.885583254999999932e-04
1.430000000000000071e+01,3.837404837999999874e+00,2.131618559000000079e+00
1.450000000000000000e+01,9.830165432999999897e-01,5.144475287999999980e-01
1.469999999999999929e+01,7.189390567000000232e-01,5.825858966000000416e-01
1.490000000000000036e+01,1.410443914000000021e+00,9.907743635000000326e-01
1.509999999999999964e+01,3.932530960999999770e-02,4.274367133000000346e-02
1.530000000000000071e+01,1.405784345999999907e+00,1.045851902999999972e+00
1.550000000000000000e+01,5.208637668999999804e+00,3.123330789999999801e+00
1.569999999999999929e+01,2.219527680000000114e+00,1.618626786999999956e+00
1.590000000000000036e+01,4.341302697999999793e+00,2.084236678999999981e+00
1.610000000000000142e+01,9.262079678999999288e+00,6.234021434999999833e+00
1.630000000000000071e+01,5.336302243999999639e+00,4.084304260999999769e+00
1.650000000000000000e+01,2.237426197999999866e-01,1.956643942999999886e-01
1.669999999999999929e+01,5.090620788999999924e+00,3.966766445000000196e+00
1.689999999999999858e+01,6.844988255999999716e-01,5.430828487000000093e-01
1.710000000000000142e+01,5.602344794999999600e+00,3.411248141999999817e+00
1.730000000000000071e+01,7.882854840999999890e-01,5.268492368999999620e-01
1.750000000000000000e+01,5.249779335999999574e+00,3.241864772000000006e+00
1.769999999999999929e+01,3.116508560999999844e+00,1.934768001999999987e+00
1.789999999999999858e+01,4.369258279000000300e+00,2.671574222999999915e+00
1.810000000000000142e+01,5.571519877000000065e+00,5.763214553000000073e+00
1.830000000000000071e+01,4.523293307999999846e-01,3.779401971999999943e-01
1.850000000000000000e+01,5.175155897999999866e+00,2.150290655000000051e+00
1.869999999999999929e+01,3.531460663999999916e+00,1.965057454000000092e+00
1.889999999999999858e+01,4.222788400999999858e+00,3.323046934000000174e+00
1.910000000000000142e+01,1.158111268000000083e+00,6.767385745999999758e-01
1.930000000000000071e+01,1.718255268999999918e+00,1.080835484000000069e+00
1.950000000000000000e+01,7.251442580000000415e-01,7.980877727999999838e-01
1.969999999999999929e+01,5.564431768000000389e+00,3.243537144999999899e+00
1.989999999999999858e+01,5.674523958999999618e-01,4.690975607999999797e-01
2.010000000000000142e+01,3.164105510999999926e-01,3.041909449999999904e-01
2.030000000000000071e+01,8.147225389999999123e+00,4.305351683999999679e+00
2.050000000000000000e+01,4.660814006999999926e+00,4.001509437000000169e+00
2.069999999999999929e+01,2.756070042000000164e+00,1.583106354000000104e+00
2.089999999999999858e+01,4.732163242999999575e+00,3.200756935999999886e+00
2.110000000000000142e+01,8.292058868999999888e+00,4.661602144999999808e+00
2.130000000000000071e+01,4.758193883999999763e+00,3.087312610000000124e+00
2.150000000000000000e+01,2.546490713999999961e-02,1.621743211999999990e-02
2.169999999999999929e+01,8.353851267999999886e-01,6.618823937000000157e-01
2.189999999999999858e+01,5.460084291000000256e+00,2.897756989999999977e+00
2.210000000000000142e+01,1.586884731000000048e+00,1.655196958000000107e+00
2.230000000000000071e+01,2.398671604000000152e-02,1.562249916000000086e-02
2.250000000000000000e+01,1.219459896000000043e+00,7.281473377999999608e-01
2.269999999999999929e+01,2.663551104000000169e+00,1.427094579000000030e+00
2.289999999999999858e+01,6.294324178000000103e+00,3.757591577999999988e+00
2.310000000000000142e+01,1.415481710999999976e+00,1.266672049000000078e+00
2.330000000000000071e+01,1.090924362999999980e-01,1.055179207999999980e-01
2.350000000000000000e+01,2.343731562999999962e+00,2.387537175999999928e+00
2.369999999999999929e+01,8.242751310999999470e-01,5.577628825999999540e-01
2.389999999999999858e+01,5.942451980999999606e+00,3.443820161000000102e+00
2.410000000000000142e+01,3.337066227000000218e+00,2.243047647000000033e+00
2.430000000000000071e+01,2.282413494000000043e+00,1.747191563999999975e+00
2.450000000000000000e+01,4.077655109000000166e-01,4.158755841999999814e-01
2.469999999999999929e+01,1.340270863999999951e-01,1.526322277999999921e-01
2.489999999999999858e+01,1.100901786000000049e-01,6.608222236999999888e-02
2.510000000000000142e+01,9.330691585999999482e-01,5.502588512999999626e-01
2.530000000000000071e+01,3.128134981000000092e+00,2.016660182999999940e+00
2.550000000000000000e+01,2.898385488000000176e+00,1.338690093000000081e+00
2.569999999999999929e+01,4.523628418000000373e+00,2.477512063999999903e+00
2.589999999999999858e+01,1.010732125000000003e+01,4.762139494000000361e+00
2.610000000000000142e+01,1.500202912000000000e+00,1.222019621000000056e+00
2.630000000000000071e+01,5.159648712000000081e+00,4.637765840000000139e+00
2.650000000000000000e+01,3.445576266000000221e+00,2.228805846000000201e+00
2.669999999999999929e+01,2.497811569000000023e-02,1.612086692000000085e-02
2.689999999999999858e+01,8.177013784000000118e-01,9.409115860000000220e-01
2.710000000000000142e+01,6.847463679999999941e-01,7.203073531000000473e-01
2.730000000000000071e+01,2.234676363999999804e+00,2.211182054000000008e+00
2.750000000000000000e+01,3.506587280999999834e+00,3.022396418000000029e+00
2.769999999999999929e+01,3.394858623000000186e+00,3.259800892999999977e+00
2.789999999999999858e+01,3.680936932000000161e-01,4.203972700999999978e-01
2.810000000000000142e+01,1.012472879999999978e-02,6.087497885999999803e-03
2.830000000000000071e+01,2.189224691999999806e+00,1.903012471999999899e+00
2.850000000000000000e+01,5.692745803000000215e+00,2.730315071999999788e+00
2.869999999999999929e+01,5.319013160999999990e+00,3.280387607999999844e+00
2.889999999999999858e+01,2.261307831999999962e+00,1.951858558999999937e+00
2.910000000000000142e+01,7.689972568000000286e-02,7.100342535999999705e-02
2.930000000000000071e+01,1.569781878999999991e+00,1.640199736000000019e+00
2.950000000000000000e+01,2.710402510999999848e+00,2.974078210000000055e+00
2.969999999999999929e+01,3.653457294999999938e+00,2.596047444999999954e+00
2.989999999999999858e+01,1.138293566000000007e-01,1.173645761000000065e-01
3.010000000000000142e+01,1.084193001000000045e+00,9.478821812000000069e-01
3.030000000000000071e+01,9.386713126000000296e-01,5.729908646000000383e-01
3.050000000000000000e+01,3.961311019000000044e+00,2.183246564000000056e+00
3.069999999999999929e+01,1.953183096999999924e+00,1.289512967999999926e+00
3.089999999999999858e+01,9.798541893999999530e+00,4.312954657999999775e+00
3.110000000000000142e+01,2.166881263000000057e+00,1.575806041000000102e+00
3.130000000000000071e+01,6.589119432999999582e+00,3.873792526999999986e+00
3.150000000000000000e+01,1.721895173000000057e+00,1.107898765000000063e+00
3.169999999999999929e+01,1.402453476000000032e+00,1.056045217999999952e+00
3.189999999999999858e+01,5.304519468999999710e+00,3.445803686000000088e+00
3.210000000000000142e+01,4.359535217000000351e+00,2.317088582999999868e+00
3.229999999999999716e+01,2.994623014000000083e+00,1.708019445999999997e+00
3.250000000000000000e+01,2.120914777999999945e+00,1.461447544000000098e+00
3.270000000000000284e+01,1.388923917000000063e+00,8.562612679000000115e-01
3.289999999999999858e+01,1.185404829999999965e+00,8.361532698000000430e-01
3.310000000000000142e+01,6.605694412000000071e+00,3.910206715999999805e+00
3.329999999999999716e+01,6.785590241999999606e+00,5.102105492999999825e+00
3.350000000000000000e+01,3.987516657000000020e+00,2.844294140000000137e+00
3.370000000000000284e+01,6.241522544999999589e+00,3.073281306999999796e+00
3.389999999999999858e+01,6.520813537000000437e+00,3.469896292000000049e+00
3.410000000000000142e+01,1.008450666999999967e+01,4.057380406000000050e+00
3.429999999999999716e+01,1.706926435999999825e+01,5.157781993999999592e+00
3.450000000000000000e+01,2.603063292999999945e+01,6.868644313999999973e+00
3.470000000000000284e+01,5.872540658999999863e+01,1.142655006000000029e+01
3.489999999999999858e+01,5.962837245000000053e+01,9.791864110000000565e+00
3.510000000000000142e+01,5.531261977999999857e+01,9.155314575000000232e+00
3.529999999999999716e+01,1.296460300999999902e+02,1.469897081999999955e+01
3.550000000000000000e+01,1.520816981000000112e+02,1.566274929999999976e+01
3.570000000000000284e+01,1.867732513999999924e+02,1.719791195999999900e+01
3.589999999999999858e+01,2.026926187999999911e+02,1.774989147999999872e+01
3.610000000000000142e+01,2.217138463000000002e+02,1.851122638000000009e+01
3.629999999999999716e+01,2.578620038000000250e+02,2.006231234999999913e+01
3.650000000000000000e+01,2.691684930000000122e+02,2.048030595000000176e+01
3.670000000000000284e+01,2.593267465000000129e+02,2.036045314000000062e+01
3.689999999999999858e+01,2.910392671000000178e+02,2.128452319999999887e+01
3.710000000000000142e+01,2.506618335999999942e+02,1.977118607999999966e+01
3.729999999999999716e+01,2.193324693000000138e+02,1.835697190999999862e+01
3.750000000000000000e+01,2.053361561000000108e+02,1.809565037999999859e+01
3.770000000000000284e+01,1.548575236000000075e+02,1.522471505999999941e+01
3.789999999999999858e+01,1.009450743999999958e+02,1.225712809000000014e+01
3.810000000000000142e+01,9.581386722999999961e+01,1.254132141000000011e+01
3.829999999999999716e+01,8.042912017999999819e+01,1.245566642000000002e+01
3.850000000000000000e+01,4.730744159999999709e+01,8.717388579999999720e+00
3.870000000000000284e+01,2.504107026999999874e+01,6.077772107000000368e+00
3.889999999999999858e+01,2.707800453000000118e+01,6.685914947999999747e+00
3.910000000000000142e+01,1.676579574000000150e+01,5.370137382000000237e+00
3.929999999999999716e+01,1.012839559999999928e+01,3.640556625999999962e+00
3.950000000000000000e+01,8.498962110000000791e+00,2.807726930999999926e+00
3.970000000000000284e+01,1.673007317000000072e+01,4.873498593999999962e+00
3.989999999999999858e+01,1.018045444999999916e+01,4.660396969999999861e+00
4.010000000000000142e+01,1.424121923999999950e+01,4.376885159999999608e+00
4.029999999999999716e+01,1.752650728000000058e+01,4.418445202000000016e+00
4.050000000000000000e+01,2.995504254000000088e+01,6.673154585999999888e+00
4.070000000000000284e+01,2.725110731999999913e+01,5.287832090000000207e+00
4.089999999999999858e+01,4.322995643000000143e+01,6.973201902999999646e+00
4.110000000000000142e+01,7.142311754000000690e+01,8.945269651000000266e+00
4.129999999999999716e+01,7.497033046999999328e+01,8.888765156999999917e+00
4.150000000000000000e+01,9.259812746000000061e+01,9.975395440999999863e+00
4.170000000000000284e+01,1.021691576000000055e+02,1.021283567999999953e+01
4.189999999999999858e+01,1.100189038000000039e+02,1.057847027999999945e+01
4.210000000000000142e+01,1.325517378000000122e+02,1.150580506000000014e+01
4.229999999999999716e+01,1.353405785999999864e+02,1.193076141000000057e+01
4.250000000000000000e+01,1.365327522999999985e+02,1.217895739000000077e+01
4.270000000000000284e+01,1.485311895000000106e+02,1.284810058000000055e+01
4.289999999999999858e+01,1.385472469999999987e+02,1.191683734000000072e+01
4.310000000000000142e+01,1.253892794000000066e+02,1.125937977999999973e+01
4.329999999999999716e+01,1.186525376000000023e+02,1.079134675000000065e+01
4.350000000000000000e+01,9.705939039999999807e+01,1.007425476999999958e+01
4.370000000000000284e+01,9.262080059999999548e+01,9.599327973999999486e+00
4.389999999999999858e+01,6.010591585000000237e+01,8.028647224000000193e+00
4.410000000000000142e+01,6.551332752000000426e+01,8.076815930000000421e+00
4.429999999999999716e+01,3.654905106999999731e+01,5.791052894999999978e+00
4.450000000000000000e+01,3.782087495999999760e+01,5.865746527999999849e+00
4.470000000000000284e+01,3.850814891999999645e+01,8.500661822999999728e+00
4.489999999999999858e+01,1.670276658999999952e+01,3.875414560999999924e+00
4.510000000000000142e+01,1.799335779999999829e+01,4.463457374999999949e+00
4.529999999999999716e+01,1.266954984000000017e+01,3.552415943999999826e+00
4.550000000000000000e+01,1.507618798999999932e+01,4.776537071999999995e+00
4.570000000000000284e+01,7.096997452000000095e+00,2.753035437999999946e+00
4.589999999999999858e+01,6.997617549000000103e+00,2.878871215999999844e+00
4.610000000000000142e+01,3.868351125999999862e+00,1.548456373999999913e+00
4.629999999999999716e+01,4.965151827999999767e+00,1.822281409999999990e+00
4.650000000000000000e+01,1.111312067999999931e+00,5.074898117999999680e-01
4.670000000000000284e+01,1.567793495000000092e+00,5.327737090999999925e-01
4.689999999999999858e+01,2.489633691999999954e+00,1.526291175999999972e+00
4.710000000000000142e+01,3.934734113000000200e+00,2.790282782999999878e+00
4.729999999999999716e+01,6.819758584999999762e+00,3.188807075000000157e+00
4.750000000000000000e+01,1.526842618000000096e+00,9.787200085999999688e-01
4.770000000000000284e+01,1.549350956000000057e+00,1.314441323000000050e+00
4.789999999999999858e+01,1.849038362000000046e-01,1.635612699000000003e-01
4.810000000000000142e+01,7.445400050999999575e-01,7.993736519999999901e-01
4.829999999999999716e+01,1.538086588000000088e+00,1.276438396999999947e+00
4.850000000000000000e+01,2.550333643000000095e+00,1.870549134000000002e+00
4.870000000000000284e+01,5.618598286000000108e+00,3.370281993999999948e+00
4.889999999999999858e+01,7.810142932999999843e+00,4.692171583000000368e+00
4.910000000000000142e+01,8.845323763000000339e-01,3.662265733999999773e-01
4.929999999999999716e+01,8.436604631999999881e+00,4.908714691000000130e+00
4.950000000000000000e+01,6.065582015000000382e+00,3.792219969000000024e+00
4.970000000000000284e+01,5.524372095999999566e+00,3.437827838000000025e+00
4.989999999999999858e+01,7.809834283999999904e+00,5.090455324999999753e+00
5.010000000000000142e+01,1.811252955999999914e+00,1.170087083000000083e+00
5.029999999999999716e+01,3.650948731000000169e+00,2.547086544999999980e+00
5.050000000000000000e+01,1.168988334000000018e+00,7.535104196999999893e-01
5.070000000000000284e+01,6.418853209999999976e+00,3.515913229999999778e+00
5.089999999999999858e+01,2.374863001000000029e+00,9.941656381000000264e-01
5.110000000000000142e+01,8.049270352999999822e-01,2.266518686000000005e-01
5.129999999999999716e+01,1.402460631000000069e+00,6.572329869999999907e-01
5.150000000000000000e+01,9.440220548999999295e+00,6.304635011000000233e+00
5.170000000000000284e+01,2.839136286000000009e+00,1.791417706999999915e+00
5.189999999999999858e+01,2.774136767999999975e+00,1.562260275999999948e+00
5.210000000000000142e+01,1.422282596000000066e+00,3.024280644999999823e-01
5.229999999999999716e+01,6.141298781999999790e+00,2.662852011000000019e+00
5.250000000000000000e+01,7.942532875000000381e+00,3.176865996000000081e+00
5.270000000000000284e+01,3.170212863999999797e+00,1.395951138999999896e+00
5.289999999999999858e+01,9.059485820000000800e+00,5.531627089999999747e+00
5.310000000000000142e+01,7.248144380000000275e+00,4.018108662999999581e+00
5.329999999999999716e+01,9.045534563999999556e-01,2.849177183000000113e-01
5.350000000000000000e+01,9.311721331000000212e-01,2.384217379000000137e-01
5.370000000000000284e+01,3.470429473999999903e+00,1.808530195999999979e+00
5.389999999999999858e+01,5.817738063000000182e+00,3.918669356000000104e+00
5.410000000000000142e+01,9.560292413000000877e+00,3.479290368000000022e+00
5.429999999999999716e+01,3.308117446999999878e+00,2.490709078000000076e+00
5.450000000000000000e+01,7.286906023000000232e+00,4.632027818000000075e+00
5.470000000000000284e+01,1.203265645000000106e+00,7.219858559999999814e-01
5.489999999999999858e+01,3.634631836000000171e-01,2.891690766000000190e-01
5.510000000000000142e+01,2.388526693999999950e-01,1.236779318999999960e-01
5.529999999999999716e+01,2.104364782000000211e+00,1.884122279999999927e+00
5.550000000000000000e+01,4.124067636000000037e-01,1.754019961999999933e-01
5.570000000000000284e+01,1.698688540000000025e+00,1.105045078999999930e+00
5.589999999999999858e+01,9.232192573999999929e-01,8.490675723999999702e-01
5.610000000000000142e+01,3.151517445000000084e+00,2.694747109000000140e+00
5.629999999999999716e+01,6.938517628999999687e+00,3.640532160999999878e+00
5.650000000000000000e+01,2.635308965000000114e+00,2.674540350000000011e+00
5.670000000000000284e+01,3.688762299000000189e-01,4.007826063000000105e-01
5.689999999999999858e+01,5.310374005000000341e-01,5.150755579000000361e-01
5.710000000000000142e+01,1.434079224000000075e+01,5.588256783000000283e+00
5.729999999999999716e+01,1.157589263999999929e+01,4.898187650999999754e+00
5.750000000000000000e+01,7.353207969999999705e+00,3.238179770999999985e+00
5.770000000000000284e+01,9.874562617000000486e+00,3.935708733999999875e+00
5.789999999999999858e+01,1.407752351999999973e+01,5.132122646000000010e+00
5.810000000000000142e+01,1.374426496999999969e+01,4.857553474000000371e+00
5.829999999999999716e+01,1.419708076999999946e+01,4.482954630000000051e+00
5.850000000000000000e+01,1.037477318000000004e+01,3.566045401999999864e+00
5.870000000000000284e+01,1.547606404999999974e+01,4.566160752000000045e+00
5.889999999999999858e+01,1.613351326000000086e+01,4.607830439999999861e+00
5.910000000000000142e+01,1.150038106000000049e+01,4.145181670999999568e+00
5.929999999999999716e+01,3.626186120999999929e+01,7.310809402000000290e+00
5.950000000000000000e+01,3.524903694999999715e+01,7.217734496000000277e+00
5.970000000000000284e+01,4.712447390999999897e+01,8.651196111999999161e+00
5.989999999999999858e+01,4.868234233999999816e+01,8.683362841999999304e+00
6.010000000000000142e+01,6.882395916000000113e+01,1.136375458000000016e+01
6.029999999999999716e+01,6.844506522000000359e+01,1.015471404000000000e+01
6.050000000000000000e+01,8.609855688000000384e+01,1.118329482999999946e+01
6.070000000000000284e+01,8.604542408000000364e+01,1.111209833999999930e+01
6.089999999999999858e+01,8.734197482000000434e+01,1.138464122000000067e+01
6.110000000000000142e+01,8.417769620999999347e+01,1.092428649999999912e+01
6.129999999999999716e+01,8.668700013999999499e+01,1.116923730999999975e+01
6.150000000000000000e+01,9.623825761999999884e+01,1.171521764000000054e+01
6.170000000000000284e+01,7.525758826999999940e+01,9.814313923000000273e+00
6.189999999999999858e+01,7.660321600999999703e+01,1.034138343999999954e+01
6.210000000000000142e+01,8.444481057999999507e+01,1.145454025999999992e+01
6.229999999999999716e+01,1.062990554999999944e+02,1.247976354000000043e+01
6.250000000000000000e+01,8.703235827000000313e+01,1.125445949000000034e+01
6.270000000000000284e+01,7.830023912000000053e+01,1.060714587999999914e+01
6.289999999999999858e+01,8.241046749000000204e+01,1.074710441000000039e+01
6.310000000000000142e+01,7.133154998000000546e+01,9.692753412000000068e+00
6.329999999999999716e+01,7.103764931999999988e+01,1.027693217000000026e+01
6.350000000000000000e+01,7.526835173000000623e+01,1.051499371000000060e+01
6.370000000000000284e+01,3.485619881000000220e+01,6.507750774999999877e+00
6.389999999999999858e+01,3.758445006000000177e+01,7.393560231000000371e+00
6.409999999999999432e+01,3.846231536999999889e+01,7.326862172000000228e+00
6.429999999999999716e+01,4.813220017999999811e+01,8.334600518000000235e+00
6.450000000000000000e+01,2.457028629999999936e+01,5.720193186000000374e+00
6.470000000000000284e+01,3.821615709999999666e+01,8.239054174999999702e+00
6.490000000000000568e+01,3.075136017000000166e+01,6.693425817999999694e+00
6.509999999999999432e+01,2.055772887999999909e+01,5.139333167000000202e+00
6.529999999999999716e+01,1.518044343999999946e+01,4.509916607000000077e+00
6.550000000000000000e+01,1.574048724999999926e+01,4.814893914999999858e+00
6.570000000000000284e+01,1.223071277000000023e+01,4.022276161999999822e+00
6.590000000000000568e+01,1.285179323999999923e+01,4.800132039000000184e+00
6.609999999999999432e+01,7.202515076000000072e+00,2.871975078999999820e+00
6.629999999999999716e+01,3.796071250999999869e+00,2.383528995999999900e+00
6.650000000000000000e+01,1.151189285999999967e+01,4.283538935000000158e+00
6.670000000000000284e+01,6.601585089000000295e+00,3.296902988999999895e+00
6.690000000000000568e+01,1.943331075999999991e+00,1.201070813000000070e+00
6.709999999999999432e+01,2.598844104999999960e+00,1.174944433999999926e+00
6.729999999999999716e+01,3.377241999000000217e+00,1.770322417999999898e+00
6.750000000000000000e+01,5.513279823999999607e+00,2.983760209000000163e+00
6.770000000000000284e+01,2.063942185999999790e+00,1.422621316000000080e+00
6.790000000000000568e+01,2.631770706999999820e+00,1.776743524000000019e+00
6.809999999999999432e+01,2.309039400000000075e+00,1.486122050999999944e+00
6.829999999999999716e+01,4.684478698999999580e+00,2.932453102000000200e+00
6.850000000000000000e+01,6.151083311999999914e+00,3.803644971999999846e+00
6.870000000000000284e+01,7.960543869000000328e+00,4.146433595999999611e+00
6.890000000000000568e+01,8.679258688999999194e+00,3.673334794000000070e+00
6.909999999999999432e+01,5.447709581999999884e+00,3.410757498000000165e+00
6.929999999999999716e+01,1.174739480999999941e+01,6.251926937000000351e+00
6.950000000000000000e+01,1.342137748000000030e+01,5.605193987999999905e+00
6.970000000000000284e+01,1.311849952999999935e+01,5.837314596999999772e+00
6.990000000000000568e+01,1.794564009000000127e+01,6.774515315999999565e+00
7.009999999999999432e+01,2.285474136999999928e+01,6.972423603000000192e+00
7.029999999999999716e+01,2.089064660000000018e+01,6.264230890000000329e+00
7.050000000000000000e+01,3.919023445999999922e+01,9.957879644000000141e+00
7.070000000000000284e+01,2.810031344000000075e+01,8.000770935000000250e+00
7.090000000000000568e+01,3.076242900000000091e+01,8.580785803999999573e+00
7.109999999999999432e+01,3.319335773000000245e+01,8.766664789000000013e+00
7.129999999999999716e+01,6.660479257999999447e+01,1.324768914000000031e+01
7.150000000000000000e+01,6.439042661000000578e+01,1.225232446000000053e+01
7.170000000000000284e+01,7.398142780000000585e+01,1.384405721000000078e+01
7.190000000000000568e+01,5.709692599000000257e+01,1.141483799000000054e+01
7.209999999999999432e+01,6.263578462000000258e+01,1.157376715999999917e+01
7.229999999999999716e+01,8.565483378999999786e+01,1.453982504999999925e+01
7.250000000000000000e+01,6.841806262999999433e+01,1.236030073000000051e+01
7.270000000000000284e+01,9.861234195000000113e+01,1.471912612999999936e+01
7.290000000000000568e+01,9.209652434000000198e+01,1.457958977999999917e+01
7.309999999999999432e+01,8.229565159000000563e+01,1.326579824999999957e+01
7.329999999999999716e+01,1.161284481000000000e+02,1.618705995999999914e+01
7.350000000000000000e+01,1.072370453999999995e+02,1.503362661999999972e+01
7.370000000000000284e+01,1.165282332999999966e+02,1.610722462000000021e+01
7.390000000000000568e+01,1.176051755999999955e+02,1.610873704999999845e+01
7.409999999999999432e+01,1.212914707000000050e+02,1.704000256000000135e+01
7.429999999999999716e+01,1.200465982999999994e+02,1.649185828999999970e+01
7.450000000000000000e+01,1.355071327999999937e+02,1.782203451999999899e+01
7.470000000000000284e+01,1.096779001999999963e+02,1.548119153999999931e+01
7.490000000000000568e+01,1.198495841000000013e+02,1.629479794999999953e+01
7.509999999999999432e+01,1.033210629999999952e+02,1.485022973999999962e+01
7.529999999999999716e+01,8.723812886999999705e+01,1.330417759000000011e+01
7.550000000000000000e+01,1.324478823000000034e+02,1.721076941999999832e+01
7.570000000000000284e+01,9.154443774000000644e+01,1.417201443999999988e+01
7.590000000000000568e+01,8.901161177000000180e+01,1.334062469000000029e+01
7.609999999999999432e+01,9.657785463000000448e+01,1.407333228000000069e+01
7.629999999999999716e+01,1.109941115999999965e+02,1.536572194999999930e+01
7.650000000000000000e+01,7.714160771000000238e+01,1.212130967999999953e+01
7.670000000000000284e+01,9.277745029000000443e+01,1.360256322999999945e+01
7.690000000000000568e+01,9.562928866999999400e+01,1.279817556999999972e+01
7.709999999999999432e+01,7.351607988000000660e+01,1.051182279999999913e+01
7.729999999999999716e+01,8.618972390999999789e+01,1.256977041000000028e+01
7.750000000000000000e+01,9.419630368999999348e+01,1.373931847000000062e+01
7.770000000000000284e+01,6.341973921999999675e+01,1.008951056999999984e+01
7.790000000000000568e+01,4.582941702000000106e+01,6.981014126999999903e+00
7.809999999999999432e+01,6.157610832000000300e+01,9.909579540999999381e+00
7.829999999999999716e+01,4.785099084000000147e+01,7.072537092000000136e+00
7.850000000000000000e+01,6.589362205999999844e+01,9.696292409999999862e+00
7.870000000000000284e+01,4.865073933000000039e+01,8.413876770999999977e+00
7.890000000000000568e+01,4.046985212999999959e+01,6.160227304000000181e+00
7.909999999999999432e+01,4.844997235000000302e+01,7.988892235999999869e+00
7.929999999999999716e+01,5.603513173000000336e+01,9.043466077999999797e+00
7.950000000000000000e+01,2.795768486000000053e+01,4.556181587000000199e+00
7.970000000000000284e+01,4.645148068000000308e+01,7.186019800999999596e+00
7.990000000000000568e+01,3.299625276999999812e+01,6.531567181999999860e+00
8.009999999999999432e+01,2.603089260000000138e+01,4.595609589999999578e+00
8.029999999999999716e+01,3.374858111999999721e+01,6.721673365000000011e+00
8.050000000000000000e+01,3.104939096000000021e+01,6.796643571999999800e+00
8.070000000000000284e+01,2.588134082999999919e+01,5.125897988000000183e+00
8.090000000000000568e+01,2.070576279999999869e+01,4.315909820999999980e+00
8.109999999999999432e+01,1.385119803000000083e+01,3.933414486000000210e+00
8.129999999999999716e+01,1.986387960000000064e+01,4.867545037000000185e+00
8.150000000000000000e+01,1.299571961000000009e+01,4.322742655999999961e+00
8.170000000000000284e+01,1.304127996000000067e+01,3.373275248000000115e+00
8.190000000000000568e+01,1.373061077000000019e+01,3.240641275000000210e+00
8.209999999999999432e+01,1.193896271000000020e+01,3.220873469999999905e+00
8.229999999999999716e+01,5.982885741999999674e+00,2.237255688999999936e+00
8.250000000000000000e+01,8.830153305999999702e+00,2.731136691000000116e+00
8.270000000000000284e+01,7.921407383000000024e+00,2.656423873000000047e+00
8.290000000000000568e+01,1.243125721000000006e+01,4.386709888000000390e+00
8.309999999999999432e+01,6.248686365000000187e+00,1.993485643999999946e+00
8.329999999999999716e+01,5.857429494999999875e+00,2.477541669999999918e+00
8.350000000000000000e+01,9.560377444000000224e+00,4.005138190000000264e+00
8.370000000000000284e+01,7.652283944999999754e+00,4.233082330000000226e+00
8.390000000000000568e+01,1.078247419999999934e+01,4.609724940999999632e+00
8.409999999999999432e+01,3.552408234000000053e+00,1.859698164999999959e+00
8.429999999999999716e+01,2.660453275000000062e+00,1.279338676000000063e+00
8.450000000000000000e+01,1.425848468999999952e+00,8.459782627999999916e-01
8.470000000000000284e+01,1.012411355000000057e+01,6.322801151000000175e+00
8.490000000000000568e+01,2.929266232999999886e+00,1.498754176000000049e+00
8.509999999999999432e+01,7.318207724999999941e-01,5.680304049000000077e-01
8.529999999999999716e+01,2.180536791000000196e+00,1.315321705999999979e+00
8.550000000000000000e+01,2.847364671999999874e+00,1.588733034000000099e+00
8.570000000000000284e+01,1.995397464000000065e+00,9.779806588999999661e-01
8.590000000000000568e+01,3.305913798000000181e+00,2.092607643000000017e+00
8.609999999999999432e+01,6.231904615000000369e+00,3.444522468000000170e+00
8.629999999999999716e+01,3.078238256000000117e+00,1.174213900000000033e+00
8.650000000000000000e+01,4.669355870999999603e+00,2.377328486000000130e+00
8.670000000000000284e+01,3.937918874000000180e+00,1.837165297000000086e+00
8.690000000000000568e+01,3.589741261999999988e+00,1.356416478999999953e+00
8.709999999999999432e+01,8.040384574000000839e+00,2.952716485999999918e+00
8.729999999999999716e+01,4.754549180999999791e+00,1.664224334000000027e+00
8.750000000000000000e+01,4.559846420000000400e+00,2.553291832999999844e+00
8.770000000000000284e+01,4.241502729999999666e+00,1.595652147000000021e+00
8.790000000000000568e+01,4.643280472999999908e+00,1.656115409000000094e+00
8.809999999999999432e+01,4.721009946999999762e+00,1.499688818999999951e+00
8.829999999999999716e+01,3.250743123999999984e+00,1.316696373999999947e+00
8.850000000000000000e+01,3.597917129999999908e+00,1.249832052999999998e+00
8.870000000000000284e+01,8.595321961999999871e+00,2.592603229999999925e+00
8.890000000000000568e+01,1.102838093999999991e+01,3.082230658999999928e+00
8.909999999999999432e+01,9.343040488999999837e+00,2.632353429000000133e+00
8.929999999999999716e+01,6.681983179000000383e+00,1.980687325999999970e+00
8.950000000000000000e+01,4.493610990999999721e+00,1.383140325000000059e+00
8.970000000000000284e+01,7.742187194999999633e+00,2.338251597000000181e+00
8.990000000000000568e+01,1.132128267999999949e+01,3.595777893999999808e+00
9.009999999999999432e+01,1.303979295999999977e+01,2.870440034000000029e+00
9.029999999999999716e+01,1.513142719999999919e+01,3.588740081000000082e+00
9.050000000000000000e+01,1.042141623000000017e+01,2.304846513000000208e+00
9.070000000000000284e+01,1.501044480999999919e+01,2.655561547000000022e+00
9.090000000000000568e+01,1.012376543999999967e+01,2.142259530000000023e+00
9.109999999999999432e+01,1.189051893000000071e+01,2.324719502999999854e+00
9.129999999999999716e+01,1.839355202000000133e+01,2.994702833999999925e+00
9.150000000000000000e+01,1.597713992999999988e+01,2.822204194999999860e+00
9.170000000000000284e+01,1.639246066000000113e+01,2.840445053999999914e+00
9.190000000000000568e+01,1.600109168999999909e+01,2.851065841000000045e+00
9.209999999999999432e+01,2.192243908000000019e+01,4.125894792999999616e+00
9.229999999999999716e+01,1.901545181999999912e+01,3.000757396000000021e+00
9.250000000000000000e+01,1.825747600000000048e+01,3.096555609000000153e+00
9.270000000000000284e+01,1.560042256999999921e+01,2.716033603000000074e+00
9.290000000000000568e+01,2.097428219000000027e+01,3.847485999999999962e+00
9.309999999999999432e+01,2.283191841000000011e+01,4.767106854999999754e+00
9.329999999999999716e+01,1.796527455000000018e+01,4.187700564000000014e+00
9.350000000000000000e+01,1.836562359999999927e+01,3.008699079999999970e+00
9.370000000000000284e+01,1.943686890000000034e+01,3.336879585000000148e+00
9.390000000000000568e+01,2.139891015999999979e+01,3.821573067000000101e+00
9.409999999999999432e+01,2.040139385000000161e+01,3.191795810999999983e+00
9.429999999999999716e+01,2.671946812999999921e+01,5.246251422000000275e+00
9.450000000000000000e+01,1.157408653000000065e+01,2.558246426000000184e+00
9.470000000000000284e+01,1.702351979000000171e+01,2.740862545999999789e+00
9.490000000000000568e+01,2.405112438000000097e+01,4.792638762000000163e+00
9.509999999999999432e+01,1.820116901000000098e+01,3.851965460000000174e+00
9.529999999999999716e+01,1.411886739999999918e+01,2.613962669999999822e+00
9.550000000000000000e+01,2.388287894999999850e+01,5.178572727999999792e+00
9.570000000000000284e+01,1.830997771999999912e+01,3.953616794999999851e+00
9.590000000000000568e+01,1.140314786999999974e+01,2.216610537999999853e+00
9.609999999999999432e+01,1.340298287999999971e+01,3.047805757999999976e+00
9.629999999999999716e+01,1.007011843000000084e+01,2.005714086999999868e+00
9.650000000000000000e+01,1.592697113999999914e+01,4.238164804000000174e+00
9.670000000000000284e+01,1.533786571999999992e+01,3.774491546000000142e+00
9.690000000000000568e+01,1.449645620999999984e+01,3.913339184999999887e+00
9.709999999999999432e+01,1.933516378999999930e+01,4.766690686999999649e+00
9.729999999999999716e+01,1.438212073000000046e+01,3.282643043000000205e+00
9.750000000000000000e+01,1.006439066999999987e+01,3.313002996999999894e+00
9.770000000000000284e+01,1.717199545000000072e+01,4.914453897999999654e+00
9.790000000000000568e+01,1.024307587000000019e+01,3.083095602000000213e+00
9.809999999999999432e+01,1.744228645999999827e+01,4.834683891000000067e+00
9.829999999999999716e+01,2.162453409000000093e+01,5.948358439999999803e+00
9.850000000000000000e+01,1.559828448999999928e+01,4.257220786000000423e+00
9.870000000000000284e+01,1.931766423999999915e+01,5.341848248999999882e+00
9.890000000000000568e+01,3.256407556999999997e+01,7.922970637999999788e+00
9.909999999999999432e+01,1.978403793000000022e+01,5.622963397000000363e+00
9.929999999999999716e+01,2.293305597000000162e+01,6.651349783999999765e+00
9.950000000000000000e+01,2.412433697000000166e+01,6.734986106000000028e+00
9.970000000000000284e+01,2.775496443000000113e+01,6.566905843999999881e+00
9.990000000000000568e+01,3.882267314999999996e+01,7.769615862000000206e+00
