x_axis,Intensity,Error
1.009999999999999964e+01,3.752741084999999810e-01,2.098223777000000068e-01
1.030000000000000071e+01,1.855462123999999990e+00,6.746021782000000133e-01
1.050000000000000000e+01,8.034421295000000462e-01,4.532044974000000170e-01
1.069999999999999929e+01,3.121722381000000102e+00,8.951117914999999758e-01
1.090000000000000036e+01,3.238191141999999800e+00,7.751579812000000125e-01
1.109999999999999964e+01,6.288009833000000270e+00,1.198839066999999980e+00
1.130000000000000071e+01,1.092676669999999994e+01,1.546518722999999929e+00
1.150000000000000000e+01,2.074770176000000177e+01,2.233215863999999939e+00
1.169999999999999929e+01,2.770957847000000029e+01,2.519533523999999858e+00
1.190000000000000036e+01,3.410184572000000003e+01,2.871734850000000172e+00
1.209999999999999964e+01,2.778714856999999938e+01,2.586340167999999995e+00
1.230000000000000071e+01,1.508406596000000022e+01,1.849857555999999903e+00
1.250000000000000000e+01,2.982498957999999867e+00,6.541954089000000527e-01
1.269999999999999929e+01,1.569943187000000018e+00,4.472557448000000213e-01
1.290000000000000036e+01,3.694238621999999861e+00,7.550008206999999638e-01
1.309999999999999964e+01,6.198755287000000003e+00,1.019244510000000048e+00
1.330000000000000071e+01,8.575316531000000353e+00,1.163660869000000098e+00
1.350000000000000000e+01,1.600958879999999951e+01,1.663879008000000104e+00
1.369999999999999929e+01,1.987493955000000057e+01,1.767104259999999982e+00
1.390000000000000036e+01,1.824138144000000139e+01,1.728866492999999949e+00
1.409999999999999964e+01,1.464216348999999973e+01,1.456862973000000006e+00
1.430000000000000071e+01,3.502090608000000049e+00,5.615323038999999739e-01
1.450000000000000000e+01,1.508531376000000090e+00,3.683707075000000053e-01
1.469999999999999929e+01,6.790699862000000309e-01,1.190484990999999965e-01
1.490000000000000036e+01,3.059810557000000042e-01,7.378980721000000242e-02
1.509999999999999964e+01,4.039401979000000198e-01,3.870862919999999985e-01
1.530000000000000071e+01,4.111135334000000086e-01,2.527952103000000172e-01
1.550000000000000000e+01,1.881587969999999888e-01,2.091562479000000085e-01
1.569999999999999929e+01,2.424727355999999889e-01,2.956719393999999723e-01
1.590000000000000036e+01,1.720520873999999978e-01,6.815803740999999694e-02
1.610000000000000142e+01,9.232026140000000325e-01,6.860620825000000034e-01
1.630000000000000071e+01,1.503893541000000111e-01,4.644811714000000175e-02
1.650000000000000000e+01,7.325328501000000214e-01,3.762605455999999959e-01
1.669999999999999929e+01,6.173089468000000357e-01,9.635618548999999589e-02
1.689999999999999858e+01,4.131301773000000122e-01,7.477547302999999757e-02
1.710000000000000142e+01,2.531048335000000149e-01,5.728645901999999956e-02
1.730000000000000071e+01,1.652783815999999961e-01,8.289886556999999379e-02
1.750000000000000000e+01,2.881318639999999945e-03,2.996879741000000111e-03
1.769999999999999929e+01,4.197519717000000039e-01,3.205477901000000074e-01
1.789999999999999858e+01,3.561755294999999766e-01,2.875130718999999724e-01
1.810000000000000142e+01,5.282909800999999739e-01,4.954982136000000148e-01
1.830000000000000071e+01,1.561266604999999863e-01,1.061888733999999945e-01
1.850000000000000000e+01,1.186112819999999957e+00,5.649045737000000234e-01
1.869999999999999929e+01,1.428035549999999931e+00,5.495865650000000269e-01
1.889999999999999858e+01,2.912519699000000184e+00,1.018734894000000057e+00
1.910000000000000142e+01,7.338074673999999575e+00,1.242537868000000101e+00
1.930000000000000071e+01,1.535429150000000043e+01,1.846780942999999953e+00
1.950000000000000000e+01,2.293218373999999926e+01,2.287403692999999905e+00
1.969999999999999929e+01,2.289550085000000124e+01,2.299418349999999833e+00
1.989999999999999858e+01,1.542695821999999950e+01,1.880510188999999999e+00
2.010000000000000142e+01,5.444079831999999897e+00,1.047882844999999952e+00
2.030000000000000071e+01,1.609643114999999902e+00,5.634456275000000458e-01
2.050000000000000000e+01,5.529492022999999978e-01,3.457280657999999840e-01
2.069999999999999929e+01,4.962998779000000193e-01,2.999502204000000227e-01
2.089999999999999858e+01,2.543590096000000189e-01,2.932227788999999807e-01
2.110000000000000142e+01,1.014150639999999992e-02,1.014150639999999992e-02
2.130000000000000071e+01,1.831485696000000052e-01,1.943005841999999872e-01
2.150000000000000000e+01,6.121013518000000334e-04,6.121013518000000334e-04
2.169999999999999929e+01,8.621379643999999790e-04,8.621379643999999790e-04
2.189999999999999858e+01,7.493473990000000251e-01,4.841183177999999754e-01
2.210000000000000142e+01,1.277621668000000099e+00,7.252346696999999454e-01
2.230000000000000071e+01,1.824160322000000001e+00,8.766559158000000185e-01
2.250000000000000000e+01,8.447602594999999326e+00,1.777254067000000104e+00
2.269999999999999929e+01,1.329966602999999914e+01,2.207447160000000075e+00
2.289999999999999858e+01,2.872872728000000109e+01,3.349840229999999863e+00
2.310000000000000142e+01,3.637689138000000355e+01,3.820370774000000136e+00
2.330000000000000071e+01,2.932315958999999950e+01,3.325497147000000098e+00
2.350000000000000000e+01,1.554277850999999977e+01,2.248482941999999873e+00
2.369999999999999929e+01,8.069030195999999933e+00,1.128508008000000062e+00
2.389999999999999858e+01,8.028521910000000261e+00,1.113974915000000010e+00
2.410000000000000142e+01,1.108962228000000039e+01,1.109185933000000013e+00
2.430000000000000071e+01,7.745254852000000412e+00,1.017260271000000049e+00
2.450000000000000000e+01,4.883598854999999794e+00,7.471007907000000170e-01
2.469999999999999929e+01,2.304784843999999833e+00,4.777878454999999747e-01
2.489999999999999858e+01,5.909325533000000519e-01,2.305881748999999981e-01
2.510000000000000142e+01,2.346583945000000060e-01,1.614373269000000111e-01
2.530000000000000071e+01,4.030418570000000172e-02,2.856347236000000150e-02
2.550000000000000000e+01,2.372767463000000077e-02,1.491922392000000035e-02
2.569999999999999929e+01,1.184949767000000043e-01,9.104137011000000557e-02
2.589999999999999858e+01,3.533237656999999813e-03,3.238140816999999800e-03
2.610000000000000142e+01,4.796971046000000384e-03,3.788537891000000150e-03
2.630000000000000071e+01,1.449304999000000094e-01,1.042518885000000006e-01
2.650000000000000000e+01,2.984665498000000153e-02,2.037861427999999864e-02
2.669999999999999929e+01,5.853991602000000460e-01,4.701248438000000252e-01
2.689999999999999858e+01,4.965732389000000052e-02,2.343675018000000027e-02
2.710000000000000142e+01,5.078427442999999819e-01,2.384926360000000078e-01
2.730000000000000071e+01,1.307005020999999934e+00,3.044715883999999928e-01
2.750000000000000000e+01,2.810993477999999879e+00,4.472851730999999886e-01
2.769999999999999929e+01,4.100403524999999938e+00,5.308754933999999537e-01
2.789999999999999858e+01,5.507093281999999590e+00,6.391875672000000286e-01
2.810000000000000142e+01,5.150104419999999905e+00,6.072316218000000099e-01
2.830000000000000071e+01,3.692191504999999818e+00,4.946723839000000122e-01
2.850000000000000000e+01,2.390099800000000219e+00,3.918835413000000267e-01
2.869999999999999929e+01,1.486198222999999929e+00,3.261518279999999770e-01
2.889999999999999858e+01,4.277047849000000235e-01,1.394627464000000039e-01
2.910000000000000142e+01,1.133111977000000048e-01,5.646355796000000066e-02
2.930000000000000071e+01,6.640147482999999573e-01,3.572002676000000099e-01
2.950000000000000000e+01,9.407989340000000311e-01,5.137282776999999578e-01
2.969999999999999929e+01,1.824982501000000035e+00,7.145484118999999579e-01
2.989999999999999858e+01,4.102764293999999978e+00,1.003647583000000010e+00
3.010000000000000142e+01,1.076063092000000054e+01,1.711928461000000068e+00
3.030000000000000071e+01,1.295213219000000038e+01,1.900073756999999919e+00
3.050000000000000000e+01,1.810287273999999869e+01,2.177063587000000133e+00
3.069999999999999929e+01,1.348986211999999973e+01,1.784684638999999962e+00
3.089999999999999858e+01,1.265202249999999928e+01,1.816865885999999986e+00
3.110000000000000142e+01,1.762551175999999842e+01,2.206749829000000052e+00
3.130000000000000071e+01,1.245244669000000037e+01,1.725630556999999898e+00
3.150000000000000000e+01,1.334000080999999938e+01,1.943808103000000065e+00
3.169999999999999929e+01,7.815289651999999698e+00,1.436114410000000063e+00
3.189999999999999858e+01,5.317182401000000169e+00,1.242352099999999959e+00
3.210000000000000142e+01,4.407460856000000149e+00,1.118581883000000055e+00
3.229999999999999716e+01,1.212034526999999917e+00,5.406171373999999474e-01
3.250000000000000000e+01,1.899654024000000108e-01,1.424980714000000093e-01
3.270000000000000284e+01,3.470978855000000267e-04,3.470978855000000267e-04
3.289999999999999858e+01,7.237127428000000341e-03,8.852905070000000043e-03
3.310000000000000142e+01,2.515299216999999921e-02,1.784171924000000145e-02
3.329999999999999716e+01,5.713602597999999783e-02,3.287935609999999981e-02
3.350000000000000000e+01,9.445307780999999681e-01,4.382720921000000103e-01
3.370000000000000284e+01,2.402805654999999874e+00,7.811133907999999737e-01
3.389999999999999858e+01,4.994154127999999915e+00,1.042587925999999943e+00
3.410000000000000142e+01,6.714552775999999668e+00,1.286052935999999924e+00
3.429999999999999716e+01,1.117183254999999953e+01,1.682027426000000103e+00
3.450000000000000000e+01,1.106690782000000084e+01,1.598945102000000063e+00
3.470000000000000284e+01,1.093506524999999918e+01,1.585443197000000026e+00
3.489999999999999858e+01,6.790710443000000041e+00,1.284012058000000067e+00
3.510000000000000142e+01,5.140308982999999721e+00,1.214688978000000086e+00
3.529999999999999716e+01,3.143939678000000182e+00,8.773420572000000250e-01
3.550000000000000000e+01,1.725532743999999896e+00,7.644929771999999790e-01
3.570000000000000284e+01,1.304014612000000017e+00,4.258828870999999960e-01
3.589999999999999858e+01,2.471937973000000177e+00,5.992749540999999791e-01
3.610000000000000142e+01,7.530065662000000160e+00,1.236310127999999953e+00
3.629999999999999716e+01,8.920009650000000789e+00,1.313971277999999909e+00
3.650000000000000000e+01,1.632490749000000108e+01,1.834705368000000059e+00
3.670000000000000284e+01,1.172473727999999937e+01,1.452793675999999978e+00
3.689999999999999858e+01,1.172287698999999961e+01,1.521426466000000088e+00
3.710000000000000142e+01,8.131019731000000306e+00,1.201716473000000063e+00
3.729999999999999716e+01,4.662804870999999629e+00,9.826996725000000099e-01
3.750000000000000000e+01,2.202098812000000017e+00,6.111892072000000287e-01
3.770000000000000284e+01,1.611157276999999999e+00,5.702405474999999724e-01
3.789999999999999858e+01,3.205508662000000064e-01,7.334046119999999835e-02
3.810000000000000142e+01,2.193361848000000003e-01,5.346483607000000055e-02
3.829999999999999716e+01,6.477575535999999801e-01,2.633525413000000204e-01
3.850000000000000000e+01,1.706167016000000036e-01,6.389089438999999426e-02
3.870000000000000284e+01,3.585921697000000186e-01,2.230029390000000111e-01
3.889999999999999858e+01,5.348493980999999842e-01,2.937244475999999938e-01
3.910000000000000142e+01,6.867550019999999478e-01,2.887805198000000240e-01
3.929999999999999716e+01,1.013854052999999977e+00,3.328676089000000005e-01
3.950000000000000000e+01,2.739755799000000103e+00,7.573521261000000226e-01
3.970000000000000284e+01,2.555978974999999931e+00,5.132315890999999963e-01
3.989999999999999858e+01,3.545305567000000213e+00,6.191608804999999549e-01
4.010000000000000142e+01,4.384474668000000186e+00,6.722180546999999562e-01
4.029999999999999716e+01,4.687012232999999917e+00,6.995689608999999809e-01
4.050000000000000000e+01,2.203487733999999865e+00,5.052936035999999742e-01
4.070000000000000284e+01,2.749174902000000031e+00,8.292023358000000233e-01
4.089999999999999858e+01,1.917929444999999955e+00,6.119348221999999504e-01
4.110000000000000142e+01,4.045274770999999880e+00,1.191264188999999973e+00
4.129999999999999716e+01,7.082067243000000012e+00,1.653255726000000037e+00
4.150000000000000000e+01,1.019455894999999934e+01,1.928902112000000058e+00
4.170000000000000284e+01,1.705140949000000106e+01,2.596526287000000099e+00
4.189999999999999858e+01,1.634016010999999935e+01,2.344108653999999792e+00
4.210000000000000142e+01,2.165852458999999897e+01,2.716446799999999939e+00
4.229999999999999716e+01,2.175931140999999869e+01,2.778381113000000013e+00
4.250000000000000000e+01,2.044366304000000056e+01,2.568908776999999866e+00
4.270000000000000284e+01,1.241808170000000011e+01,1.694691705999999964e+00
4.289999999999999858e+01,1.222748486000000057e+01,1.782421043999999899e+00
4.310000000000000142e+01,6.473482177000000171e+00,1.286429905999999956e+00
4.329999999999999716e+01,1.259509785999999965e+00,3.680327408999999883e-01
4.350000000000000000e+01,2.491770728000000101e+00,7.264000658000000499e-01
4.370000000000000284e+01,5.389420867999999976e-01,2.612367634000000161e-01
4.389999999999999858e+01,8.799967869999999470e-01,3.894692785000000157e-01
4.410000000000000142e+01,1.376319263000000070e+00,5.005346872999999475e-01
4.429999999999999716e+01,3.933997465000000027e+00,8.936828573999999747e-01
4.450000000000000000e+01,3.044370949999999798e+00,7.306306178999999457e-01
4.470000000000000284e+01,2.658649137999999912e+00,6.341331064999999878e-01
4.489999999999999858e+01,5.978327989000000287e+00,1.087242840000000044e+00
4.510000000000000142e+01,7.494487512000000073e+00,1.235680077000000043e+00
4.529999999999999716e+01,4.364249907999999678e+00,8.923669088000000249e-01
4.550000000000000000e+01,7.984337307999999744e+00,1.216087098000000033e+00
4.570000000000000284e+01,2.429427882999999788e+00,6.753019120000000042e-01
4.589999999999999858e+01,3.507158060000000077e+00,8.196802953999999808e-01
4.610000000000000142e+01,3.036158019000000152e+00,7.104696595999999698e-01
4.629999999999999716e+01,4.110491303999999957e+00,8.226056825999999988e-01
4.650000000000000000e+01,6.604204741000000212e+00,1.084152365000000007e+00
4.670000000000000284e+01,8.040588663999999497e+00,1.247078396999999894e+00
4.689999999999999858e+01,1.132373180999999995e+01,1.593837210000000004e+00
4.710000000000000142e+01,9.379103953999999632e+00,1.302728590000000075e+00
4.729999999999999716e+01,7.387571231999999988e+00,1.120946395000000040e+00
4.750000000000000000e+01,5.049976533999999795e+00,8.994383069000000397e-01
4.770000000000000284e+01,5.629338244999999574e+00,1.056495189000000057e+00
4.789999999999999858e+01,4.494890952999999634e+00,9.441685861999999929e-01
4.810000000000000142e+01,2.260839981000000165e+00,6.161232744000000316e-01
4.829999999999999716e+01,1.267277407999999994e+00,5.005286671999999992e-01
4.850000000000000000e+01,7.037917182999999799e-01,3.149603229999999865e-01
4.870000000000000284e+01,3.786851875999999728e-01,1.490418699000000124e-01
4.889999999999999858e+01,1.184550167000000043e+00,3.730023666999999765e-01
4.910000000000000142e+01,1.353893513999999909e+00,4.084094627000000033e-01
4.929999999999999716e+01,1.671825106000000005e+00,3.293512979000000063e-01
4.950000000000000000e+01,1.707525315999999904e+00,3.041106204999999840e-01
4.970000000000000284e+01,1.799963669000000044e+00,3.323340719999999804e-01
4.989999999999999858e+01,2.518802017000000060e+00,4.964629037000000134e-01
5.010000000000000142e+01,2.136282291000000111e+00,4.636883160999999975e-01
5.029999999999999716e+01,4.278946674000000172e+00,7.740854348000000273e-01
5.050000000000000000e+01,5.408831389999999573e+00,9.204614758000000396e-01
5.070000000000000284e+01,6.984333044000000434e+00,1.114348031000000017e+00
5.089999999999999858e+01,1.047939434000000070e+01,1.346838253999999901e+00
5.110000000000000142e+01,9.034887992999999895e+00,1.236946225999999927e+00
5.129999999999999716e+01,9.896238526999999507e+00,1.283260129000000083e+00
5.150000000000000000e+01,1.106909040999999938e+01,1.310436865000000006e+00
5.170000000000000284e+01,1.030137606000000083e+01,1.260223749999999976e+00
5.189999999999999858e+01,9.732120245999999142e+00,1.295083929000000023e+00
5.210000000000000142e+01,6.540711488000000351e+00,1.015521982999999961e+00
5.229999999999999716e+01,3.351344869000000060e+00,7.424787497999999486e-01
5.250000000000000000e+01,5.376417773000000011e+00,1.116094614999999957e+00
5.270000000000000284e+01,2.376517175000000037e+00,6.422285449000000312e-01
5.289999999999999858e+01,4.167623075999999926e+00,1.112238413000000037e+00
5.310000000000000142e+01,2.504033799000000116e+00,8.675250755000000202e-01
5.329999999999999716e+01,3.470541628999999961e+00,9.839260947000000312e-01
5.350000000000000000e+01,7.206929833000000230e+00,1.564216303999999891e+00
5.370000000000000284e+01,6.533711989999999581e+00,1.394444328999999927e+00
5.389999999999999858e+01,8.553686791000000511e+00,1.683097719000000048e+00
5.410000000000000142e+01,8.660330503999999152e+00,1.581406555999999908e+00
5.429999999999999716e+01,7.365686366000000262e+00,1.474055643000000027e+00
5.450000000000000000e+01,7.718847856000000007e+00,1.506603294000000037e+00
5.470000000000000284e+01,7.980842872000000199e+00,1.548269144000000042e+00
5.489999999999999858e+01,8.827631422999999700e+00,1.524084462000000029e+00
5.510000000000000142e+01,6.833309021999999899e+00,1.367664160999999989e+00
5.529999999999999716e+01,9.020027502999999669e+00,1.499120712000000077e+00
5.550000000000000000e+01,1.319664271000000078e+01,1.857337570999999965e+00
5.570000000000000284e+01,7.879945273999999777e+00,1.435308586999999969e+00
5.589999999999999858e+01,6.630574024999999594e+00,1.285844082999999971e+00
5.610000000000000142e+01,5.285995748000000383e+00,1.116803379999999901e+00
5.629999999999999716e+01,5.004177551999999807e+00,1.143841410000000058e+00
5.650000000000000000e+01,2.028469863999999845e+00,6.186035490000000303e-01
5.670000000000000284e+01,2.254441749000000161e+00,7.797797251000000429e-01
5.689999999999999858e+01,1.158936997999999940e+00,4.984514480000000192e-01
5.710000000000000142e+01,4.035731168999999730e-01,1.949142395000000028e-01
5.729999999999999716e+01,5.373082334000000015e-01,1.428131745000000008e-01
5.750000000000000000e+01,1.067837788999999926e+00,2.518744068000000058e-01
5.770000000000000284e+01,1.272166770999999974e+00,4.258764362999999942e-01
5.789999999999999858e+01,1.062547490000000039e+00,2.400207541999999916e-01
5.810000000000000142e+01,1.263825360000000009e+00,2.984786413000000138e-01
5.829999999999999716e+01,1.644036303999999893e+00,4.038547666000000258e-01
5.850000000000000000e+01,2.938544158000000017e+00,6.177195505000000475e-01
5.870000000000000284e+01,2.411636557000000014e+00,5.026424833999999509e-01
5.889999999999999858e+01,3.060335073000000072e+00,6.015800109000000173e-01
5.910000000000000142e+01,4.218462406999999637e+00,7.594206113000000480e-01
5.929999999999999716e+01,4.815283961999999640e+00,8.496739492999999532e-01
5.950000000000000000e+01,6.742257287000000154e+00,9.788828135999999569e-01
5.970000000000000284e+01,8.572313308000000021e+00,1.190078222999999991e+00
5.989999999999999858e+01,6.681383628999999935e+00,9.107343687000000187e-01
6.010000000000000142e+01,8.986266160999999641e+00,1.130167366000000007e+00
6.029999999999999716e+01,7.051256096999999556e+00,1.018490458000000043e+00
6.050000000000000000e+01,5.822593039000000026e+00,9.811714089999999944e-01
6.070000000000000284e+01,4.336663403000000194e+00,8.140727583000000322e-01
6.089999999999999858e+01,3.606379175999999909e+00,7.105881670999999455e-01
6.110000000000000142e+01,3.677636393999999864e+00,6.739594259000000198e-01
6.129999999999999716e+01,2.809315686999999784e+00,5.793326420000000088e-01
6.150000000000000000e+01,3.797295039000000205e+00,7.179464734999999598e-01
6.170000000000000284e+01,4.808151142999999905e+00,8.232605925999999519e-01
6.189999999999999858e+01,5.175594475999999666e+00,8.259704401999999890e-01
6.210000000000000142e+01,5.234316070000000209e+00,7.458853868999999470e-01
6.229999999999999716e+01,4.567511740999999681e+00,8.600522124999999685e-01
6.250000000000000000e+01,7.240176473000000001e+00,1.150932483999999922e+00
6.270000000000000284e+01,7.606224517000000240e+00,1.230660767999999905e+00
6.289999999999999858e+01,5.828051941000000014e+00,1.009426694000000069e+00
6.310000000000000142e+01,8.130241485999999185e+00,1.382084939000000068e+00
6.329999999999999716e+01,9.959008182999999903e+00,1.489095972999999962e+00
6.350000000000000000e+01,8.358132231000000800e+00,1.375553572999999918e+00
6.370000000000000284e+01,6.836091803000000411e+00,1.094039570000000072e+00
6.389999999999999858e+01,8.627797253000000666e+00,1.355573141000000037e+00
6.409999999999999432e+01,6.176983853000000302e+00,1.092855512999999945e+00
6.429999999999999716e+01,4.234480512000000196e+00,8.213401898000000090e-01
6.450000000000000000e+01,5.086140613000000421e+00,8.752945975999999462e-01
6.470000000000000284e+01,3.627764009999999928e+00,7.570372955999999931e-01
6.490000000000000568e+01,2.384390754000000001e+00,6.124593210000000010e-01
6.509999999999999432e+01,2.747074991999999938e+00,6.165091213000000181e-01
6.529999999999999716e+01,3.427026981000000028e+00,6.909159156999999940e-01
6.550000000000000000e+01,2.928146867000000153e+00,6.115735383999999497e-01
6.570000000000000284e+01,4.132489514000000419e+00,8.372718351000000281e-01
6.590000000000000568e+01,5.165824964999999658e+00,9.208166725999999969e-01
6.609999999999999432e+01,5.925877005000000253e+00,1.076379739999999918e+00
6.629999999999999716e+01,7.718567291000000274e+00,1.264356175999999943e+00
6.650000000000000000e+01,9.429447693000000186e+00,1.492646627999999920e+00
6.670000000000000284e+01,8.782027132999999708e+00,1.423651207000000030e+00
6.690000000000000568e+01,9.141131877999999489e+00,1.465603852000000096e+00
6.709999999999999432e+01,1.208645240000000065e+01,1.668802539000000085e+00
6.729999999999999716e+01,1.247487182999999966e+01,1.759291539999999987e+00
6.750000000000000000e+01,6.301689214999999678e+00,1.193053189000000014e+00
6.770000000000000284e+01,1.000309241999999976e+01,1.642896963999999960e+00
6.790000000000000568e+01,1.076945128000000018e+01,1.609641703999999951e+00
6.809999999999999432e+01,5.757445145000000153e+00,1.137657641000000108e+00
6.829999999999999716e+01,3.819873535999999792e+00,8.363157879999999489e-01
6.850000000000000000e+01,4.137484856999999572e+00,9.143370930999999979e-01
6.870000000000000284e+01,3.125793552999999836e+00,7.398991510000000327e-01
6.890000000000000568e+01,2.951958752999999991e+00,8.150691729000000274e-01
6.909999999999999432e+01,3.819443265999999948e+00,8.610374854000000244e-01
6.929999999999999716e+01,2.652502918999999793e+00,6.079554439000000032e-01
6.950000000000000000e+01,2.879530699000000027e+00,7.534493815999999677e-01
6.970000000000000284e+01,3.480143228000000200e+00,8.466349657999999723e-01
6.990000000000000568e+01,3.705451163999999853e+00,8.906496148000000446e-01
7.009999999999999432e+01,4.990388639999999931e+00,1.080529508999999999e+00
7.029999999999999716e+01,5.110664549000000001e+00,1.064884162000000023e+00
7.050000000000000000e+01,3.630608897000000113e+00,8.262483415000000386e-01
7.070000000000000284e+01,4.231203595000000206e+00,9.736190255000000127e-01
7.090000000000000568e+01,2.214014619999999933e+00,6.933847277000000364e-01
7.109999999999999432e+01,3.430029649000000180e+00,9.583151598000000382e-01
7.129999999999999716e+01,1.833618949999999970e+00,6.227834571000000485e-01
7.150000000000000000e+01,2.541005677999999879e+00,7.215170223000000327e-01
7.170000000000000284e+01,2.602826127000000156e+00,7.447950569000000298e-01
7.190000000000000568e+01,3.376254668000000070e+00,9.099305045000000147e-01
7.209999999999999432e+01,1.745150042999999984e+00,5.910554931999999484e-01
7.229999999999999716e+01,1.767437849000000005e+00,4.680158354999999770e-01
7.250000000000000000e+01,1.340138489999999960e+00,4.852477842999999846e-01
7.270000000000000284e+01,1.533721391000000045e+00,5.023265624999999623e-01
7.290000000000000568e+01,1.992387707000000008e+00,4.853009911000000232e-01
7.309999999999999432e+01,1.403103865999999922e+00,3.668779615000000160e-01
7.329999999999999716e+01,1.494892587999999911e+00,3.852263941999999886e-01
7.350000000000000000e+01,1.815694546000000020e+00,4.650487502000000273e-01
7.370000000000000284e+01,1.166324179999999933e+00,3.756005962999999781e-01
7.390000000000000568e+01,2.132193629999999951e-01,1.369264486000000003e-01
7.409999999999999432e+01,5.051976352999999476e-01,2.421059094000000134e-01
7.429999999999999716e+01,3.591482408000000182e-01,1.890351825999999902e-01
7.450000000000000000e+01,2.770440208000000126e-01,2.079302851000000008e-01
7.470000000000000284e+01,2.724514986000000083e-01,1.600008890000000072e-01
7.490000000000000568e+01,1.078955399999999981e-01,1.125374341000000000e-01
7.509999999999999432e+01,4.390795573000000340e-02,3.269492600999999998e-02
7.529999999999999716e+01,0.000000000000000000e+00,0.000000000000000000e+00
7.550000000000000000e+01,1.135006673999999945e-02,8.283100228999999357e-03
7.570000000000000284e+01,8.029546707000000463e-03,8.029546707000000463e-03
7.590000000000000568e+01,0.000000000000000000e+00,0.000000000000000000e+00
7.609999999999999432e+01,1.133095209999999964e-01,1.099296914000000014e-01
7.629999999999999716e+01,7.889614047999999680e-04,6.055968586000000375e-04
7.650000000000000000e+01,1.082116116000000038e-02,1.082116116000000038e-02
7.670000000000000284e+01,1.960377504999999931e-06,1.960377504999999931e-06
7.690000000000000568e+01,0.000000000000000000e+00,0.000000000000000000e+00
7.709999999999999432e+01,2.316857132000000041e-01,2.709327058000000066e-01
7.729999999999999716e+01,6.671786254000000582e-02,5.862821133999999990e-02
7.750000000000000000e+01,1.156688619999999973e-01,1.156688619999999973e-01
7.770000000000000284e+01,1.619773239000000045e-02,1.971637223000000105e-02
7.790000000000000568e+01,1.170819313999999986e-02,1.087457736000000015e-02
7.809999999999999432e+01,1.198435444999999995e-02,1.366097011999999923e-02
7.829999999999999716e+01,3.712184400000000128e-05,3.712184400000000128e-05
7.850000000000000000e+01,7.520717237000000034e-03,9.205149443999999237e-03
7.870000000000000284e+01,4.021781934999999614e-03,4.363270239999999731e-03
7.890000000000000568e+01,6.657614187999999803e-06,6.657614187999999803e-06
7.909999999999999432e+01,8.379983870000000347e-04,6.564814177999999919e-04
7.929999999999999716e+01,3.242808421000000071e-04,2.807824046000000247e-04
7.950000000000000000e+01,9.729032879000000522e-02,1.187091086999999962e-01
7.970000000000000284e+01,5.620908938000000049e-02,2.439460472000000088e-02
7.990000000000000568e+01,2.011694695999999977e-02,1.443035540000000075e-02
8.009999999999999432e+01,5.842998977999999850e-03,4.293083500000000226e-03
8.029999999999999716e+01,0.000000000000000000e+00,0.000000000000000000e+00
8.050000000000000000e+01,1.206911400999999967e-02,1.417214374999999950e-02
8.070000000000000284e+01,1.394905022000000015e-03,1.001606331999999912e-03
8.090000000000000568e+01,1.863316962999999882e-01,1.863316962999999882e-01
8.109999999999999432e+01,1.556874461000000084e-02,1.135080471000000056e-02
8.129999999999999716e+01,1.399342008000000002e-03,1.691112512999999942e-03
8.150000000000000000e+01,4.299529667000000221e-02,3.748293515000000048e-02
8.170000000000000284e+01,1.267963503000000061e-02,9.822010181000000520e-03
8.190000000000000568e+01,5.023479681999999842e-03,5.023479681999999842e-03
8.209999999999999432e+01,7.415503996000000079e-04,7.415503996000000079e-04
8.229999999999999716e+01,0.000000000000000000e+00,0.000000000000000000e+00
8.250000000000000000e+01,4.133238783999999832e-02,4.953349202000000007e-02
8.270000000000000284e+01,1.385580593999999983e-03,1.385580593999999983e-03
8.290000000000000568e+01,1.849146316999999984e-01,2.264727257999999965e-01
8.309999999999999432e+01,8.672490813999999713e-04,7.617880736999999925e-04
8.329999999999999716e+01,1.089864558000000067e-01,1.192125792999999961e-01
8.350000000000000000e+01,1.073161396999999952e-04,1.073161396999999952e-04
8.370000000000000284e+01,2.359551706000000137e-01,2.128460613000000001e-01
8.390000000000000568e+01,0.000000000000000000e+00,0.000000000000000000e+00
8.409999999999999432e+01,7.018615219000000176e-03,8.123054495000000402e-03
8.429999999999999716e+01,2.166700974000000113e-01,2.166700974000000113e-01
8.450000000000000000e+01,1.617612879000000087e-02,1.160990829999999918e-02
8.470000000000000284e+01,2.917778027000000104e-03,3.550582100000000078e-03
8.490000000000000568e+01,0.000000000000000000e+00,0.000000000000000000e+00
8.509999999999999432e+01,2.900536433000000099e-05,2.900536433000000099e-05
8.529999999999999716e+01,1.408672874999999946e-04,1.408672874999999946e-04
8.550000000000000000e+01,5.142643036000000417e-03,5.142643036000000417e-03
8.570000000000000284e+01,2.585979464999999832e-06,2.585979464999999832e-06
8.590000000000000568e+01,1.308147259000000048e-02,1.177209941000000037e-02
8.609999999999999432e+01,6.549874903999999658e-03,7.727704662999999689e-03
8.629999999999999716e+01,1.396226247999999941e-02,1.183381575999999970e-02
8.650000000000000000e+01,5.077554922999999963e-03,3.870059203999999965e-03
8.670000000000000284e+01,2.084539978999999828e-03,2.084539978999999828e-03
8.690000000000000568e+01,9.333273953000000012e-02,8.803446368999999494e-02
8.709999999999999432e+01,5.818748356999999677e-02,4.953506337000000009e-02
8.729999999999999716e+01,0.000000000000000000e+00,0.000000000000000000e+00
8.750000000000000000e+01,4.587607054999999837e-03,5.616944175999999747e-03
8.770000000000000284e+01,5.562558245000000234e-02,6.409850806000000345e-02
8.790000000000000568e+01,1.824105258000000050e-06,1.824105258000000050e-06
8.809999999999999432e+01,6.562241799999999625e-06,6.562241799999999625e-06
8.829999999999999716e+01,9.259111396000000089e-05,9.259111396000000089e-05
8.850000000000000000e+01,7.479564776000000026e-02,8.633545261000000193e-02
8.870000000000000284e+01,2.555265583999999923e-01,2.649315930000000208e-01
8.890000000000000568e+01,2.696124882000000000e-01,2.642501595999999786e-01
8.909999999999999432e+01,2.704233924000000108e-02,1.497502141000000078e-02
8.929999999999999716e+01,5.513341149000000000e-04,5.513341149000000000e-04
8.950000000000000000e+01,1.655879299999999943e-01,1.655879299999999943e-01
8.970000000000000284e+01,1.428377065000000041e-05,1.130020430999999957e-05
8.990000000000000568e+01,1.377448226000000109e-01,1.377448226000000109e-01
9.009999999999999432e+01,3.350042342999999946e-04,3.284311208000000081e-04
9.029999999999999716e+01,0.000000000000000000e+00,0.000000000000000000e+00
9.050000000000000000e+01,1.050938696999999949e-02,1.180072239000000064e-02
9.070000000000000284e+01,1.763775760999999886e-01,2.159945607000000045e-01
9.090000000000000568e+01,2.799631354999999790e-03,2.251289837000000193e-03
9.109999999999999432e+01,2.146369986999999840e-02,1.549644403999999968e-02
9.129999999999999716e+01,0.000000000000000000e+00,0.000000000000000000e+00
9.150000000000000000e+01,1.150664858999999977e-02,8.557878819999999859e-03
9.170000000000000284e+01,1.922676100000000028e-05,1.922676100000000028e-05
9.190000000000000568e+01,2.582455537000000125e-04,2.582455537000000125e-04
9.209999999999999432e+01,0.000000000000000000e+00,0.000000000000000000e+00
9.229999999999999716e+01,2.958695977000000074e-02,1.662226238999999980e-02
9.250000000000000000e+01,6.521570774000000348e-03,6.077628766000000259e-03
9.270000000000000284e+01,2.670815995999999970e-01,2.233307415999999934e-01
9.290000000000000568e+01,8.737045938999999858e-03,8.737045938999999858e-03
9.309999999999999432e+01,1.905822708000000087e-01,2.011562353000000136e-01
9.329999999999999716e+01,8.103637538000000792e-03,8.649985820000000852e-03
9.350000000000000000e+01,4.717038621000000341e-03,4.717038621000000341e-03
9.370000000000000284e+01,5.192085087000000015e-02,4.936736920999999778e-02
9.390000000000000568e+01,3.064080931000000242e-04,3.517361645999999794e-04
9.409999999999999432e+01,3.965019779999999668e-03,3.965019779999999668e-03
9.429999999999999716e+01,3.936188451000000033e-01,4.544526024000000164e-01
9.450000000000000000e+01,1.202845148000000058e-02,1.461103390999999967e-02
9.470000000000000284e+01,7.568977539000000185e-03,9.097098338999999589e-03
9.490000000000000568e+01,1.813812578000000009e-03,1.533232789999999920e-03
9.509999999999999432e+01,1.000409428000000088e-03,9.199093000999999763e-04
9.529999999999999716e+01,1.042543442999999993e-02,1.042543442999999993e-02
9.550000000000000000e+01,8.248219544999999334e-03,9.346590538999999254e-03
9.570000000000000284e+01,6.147700590999999565e-05,7.015671887999999938e-05
9.590000000000000568e+01,1.041865234999999994e-02,1.245568610999999923e-02
9.609999999999999432e+01,0.000000000000000000e+00,0.000000000000000000e+00
9.629999999999999716e+01,1.244073574999999959e-01,8.548956201000000588e-02
9.650000000000000000e+01,7.574518674999999868e-02,8.287803303999999316e-02
9.670000000000000284e+01,7.246735669999999907e-02,7.067481623000000657e-02
9.690000000000000568e+01,2.419736135999999913e-03,2.746159155000000001e-03
9.709999999999999432e+01,2.406750000000000035e-03,2.406750000000000035e-03
9.729999999999999716e+01,7.491681994999999962e-03,8.724385746999999483e-03
9.750000000000000000e+01,3.867789313000000173e-01,4.290675830999999829e-01
9.770000000000000284e+01,8.701402997000000361e-03,9.372701682000000520e-03
9.790000000000000568e+01,4.215938117999999957e-01,3.388934812000000130e-01
9.809999999999999432e+01,0.000000000000000000e+00,0.000000000000000000e+00
9.829999999999999716e+01,5.848532708000000243e-04,5.848532708000000243e-04
9.850000000000000000e+01,8.287696330000000194e-03,9.941473521999999799e-03
9.870000000000000284e+01,1.984392140999999971e-02,1.241119400999999949e-02
9.890000000000000568e+01,4.791343604999999742e-03,4.791343604999999742e-03
9.909999999999999432e+01,3.843925487999999991e-03,4.691372842999999744e-03
9.929999999999999716e+01,5.017673426000000304e-03,3.923571611000000424e-03
9.950000000000000000e+01,1.315890394999999946e-04,1.315890394999999946e-04
9.970000000000000284e+01,7.745958329999999559e-02,7.745958329999999559e-02
9.990000000000000568e+01,1.561456810999999924e-03,1.561456810999999924e-03
