x_axis,Intensity,Error
1.009999999999999964e+01,4.776268830000000021e-01,2.965779070999999822e-01
1.030000000000000071e+01,6.718012179000000250e-01,3.061709851000000149e-01
1.050000000000000000e+01,4.675809295999999726e-01,2.213193961999999904e-01
1.069999999999999929e+01,2.792422841000000155e-01,7.991302986999999913e-02
1.090000000000000036e+01,3.708307927000000226e-01,1.496037571000000121e-01
1.109999999999999964e+01,4.894933912000000165e-01,2.217461444999999920e-01
1.130000000000000071e+01,3.421136998000000040e-01,1.508791600000000122e-01
1.150000000000000000e+01,2.179491436999999865e-01,4.171820556999999985e-02
1.169999999999999929e+01,7.801033574000000304e-01,5.844684232000000312e-01
1.190000000000000036e+01,3.372583247000000006e-01,1.613862041000000136e-01
1.209999999999999964e+01,5.222002312000000313e-01,3.172775501999999803e-01
1.230000000000000071e+01,5.299509416000000028e-01,1.832082623999999882e-01
1.250000000000000000e+01,7.266755988999999971e-01,2.797808210000000129e-01
1.269999999999999929e+01,4.548819070999999825e-01,1.987731742999999940e-01
1.290000000000000036e+01,8.864632896999999900e-01,4.126949321000000226e-01
1.309999999999999964e+01,2.028296545999999922e-01,4.054198890999999999e-02
1.330000000000000071e+01,5.474370319000000373e-01,2.002988444999999895e-01
1.350000000000000000e+01,4.562118246999999904e-01,1.872384561999999864e-01
1.369999999999999929e+01,8.738960958999999473e-01,4.892359338000000224e-01
1.390000000000000036e+01,4.564948978999999740e-01,2.317412849999999913e-01
1.409999999999999964e+01,4.099514944000000050e-01,2.070072128000000067e-01
1.430000000000000071e+01,6.139680753999999796e-01,2.609250532999999872e-01
1.450000000000000000e+01,3.028509399000000046e-01,7.127074540000000180e-02
1.469999999999999929e+01,5.870901313999999926e-01,2.503616661999999993e-01
1.490000000000000036e+01,1.920867917999999896e-01,2.879153844000000018e-02
1.509999999999999964e+01,3.084829252999999882e-01,9.795561394000000532e-02
1.530000000000000071e+01,4.757561177999999891e-01,2.890118862000000122e-01
1.550000000000000000e+01,3.442391014999999777e-01,1.738152461999999954e-01
1.569999999999999929e+01,1.548670833000000135e-01,2.760284491000000034e-02
1.590000000000000036e+01,2.764761413999999862e-01,3.556205090000000291e-02
1.610000000000000142e+01,9.057401729999999818e-01,5.536009834999999768e-01
1.630000000000000071e+01,3.137486548999999791e-01,4.083459802000000138e-02
1.650000000000000000e+01,5.353733845000000491e-01,3.250098543000000118e-01
1.669999999999999929e+01,2.405903728999999880e-01,3.590697587000000329e-02
1.689999999999999858e+01,6.690945844000000253e-01,2.295726839999999991e-01
1.710000000000000142e+01,1.011925739000000046e+00,5.058785220999999499e-01
1.730000000000000071e+01,2.208451915999999904e-01,3.049720421000000001e-02
1.750000000000000000e+01,3.803196228999999873e-01,1.345935823999999947e-01
1.769999999999999929e+01,1.732804782000000099e+00,6.017541147999999618e-01
1.789999999999999858e+01,3.749919379000000164e-01,8.124471331999999490e-02
1.810000000000000142e+01,2.231779590000000091e-01,3.248621446999999662e-02
1.830000000000000071e+01,2.796857265000000092e-01,6.490206586999999749e-02
1.850000000000000000e+01,5.277212481999999927e-01,2.362478601999999928e-01
1.869999999999999929e+01,2.193032290999999967e-01,3.139201415000000134e-02
1.889999999999999858e+01,3.950191378999999836e-01,9.458070067000000358e-02
1.910000000000000142e+01,7.916172861000000394e-01,2.811758006999999782e-01
1.930000000000000071e+01,1.497445299999999868e-01,2.444838926000000162e-02
1.950000000000000000e+01,7.835806424000000270e-01,3.369723786000000110e-01
1.969999999999999929e+01,4.441614588999999724e-01,1.721425523000000013e-01
1.989999999999999858e+01,3.790144695000000064e-01,9.045875303000000534e-02
2.010000000000000142e+01,2.345162799999999936e-01,4.174383259000000179e-02
2.030000000000000071e+01,4.936813327999999834e-01,1.558476386000000047e-01
2.050000000000000000e+01,6.702434324999999582e-01,5.266519339999999882e-01
2.069999999999999929e+01,7.469280086999999790e-01,2.949792799000000021e-01
2.089999999999999858e+01,2.595904340999999893e-01,3.603981502999999836e-02
2.110000000000000142e+01,6.268906992999999650e-01,3.217444603999999875e-01
2.130000000000000071e+01,3.307900213000000145e-01,1.641471754000000116e-01
2.150000000000000000e+01,3.321757624000000186e-01,1.387031058000000039e-01
2.169999999999999929e+01,3.013761333000000153e-01,7.822941109999999310e-02
2.189999999999999858e+01,3.123050636999999963e-01,1.205555402999999998e-01
2.210000000000000142e+01,6.927955134000000070e-01,3.525836641000000271e-01
2.230000000000000071e+01,4.626758780999999932e-01,1.838549646000000037e-01
2.250000000000000000e+01,5.189422243000000323e-01,1.887748327000000059e-01
2.269999999999999929e+01,4.678564364999999725e-01,1.561829832999999945e-01
2.289999999999999858e+01,8.145503264000000243e-01,4.127958123000000090e-01
2.310000000000000142e+01,1.543373855000000017e+00,5.248295138999999887e-01
2.330000000000000071e+01,5.926504049000000052e+00,1.100352656000000096e+00
2.350000000000000000e+01,9.035857573999999559e+00,1.347609272999999996e+00
2.369999999999999929e+01,2.542558698999999933e+01,2.303759546999999852e+00
2.389999999999999858e+01,4.276454300999999703e+01,3.078213632999999838e+00
2.410000000000000142e+01,6.571295193000000268e+01,4.104919379000000035e+00
2.430000000000000071e+01,6.531368485999999507e+01,4.083400138000000013e+00
2.450000000000000000e+01,4.014078743000000316e+01,3.050088813999999982e+00
2.469999999999999929e+01,1.452083724999999959e+01,1.492712690999999925e+00
2.489999999999999858e+01,2.882211260000000053e+00,5.025622068999999748e-01
2.510000000000000142e+01,3.876076968000000122e-01,1.335104306999999879e-01
2.530000000000000071e+01,3.199971012999999753e-01,1.198925522999999965e-01
2.550000000000000000e+01,2.495022486000000039e-01,3.350296675000000168e-02
2.569999999999999929e+01,5.381909302999999811e-01,3.077389052000000236e-01
2.589999999999999858e+01,6.107942835999999875e-01,3.188401358999999879e-01
2.610000000000000142e+01,2.375679420000000042e-01,4.145598969000000023e-02
2.630000000000000071e+01,2.192743610000000010e-01,3.758927121999999788e-02
2.650000000000000000e+01,7.088342506000000487e-01,2.111067084999999899e-01
2.669999999999999929e+01,6.642848526000000309e-01,2.403919105000000001e-01
2.689999999999999858e+01,1.204202392000000010e+00,5.295023107999999867e-01
2.710000000000000142e+01,1.680504782999999946e+00,3.795067375999999770e-01
2.730000000000000071e+01,4.264987361000000199e+00,6.439846147000000132e-01
2.750000000000000000e+01,1.413887451999999989e+01,1.359121903999999992e+00
2.769999999999999929e+01,2.830248888999999934e+01,1.970108044000000058e+00
2.789999999999999858e+01,3.943523857000000277e+01,2.448656854000000216e+00
2.810000000000000142e+01,3.686560164000000128e+01,2.413821556999999896e+00
2.830000000000000071e+01,2.127413930999999891e+01,1.707977046000000110e+00
2.850000000000000000e+01,1.245170219000000067e+01,1.219113576000000032e+00
2.869999999999999929e+01,3.552553570999999799e+00,6.017202132000000203e-01
2.889999999999999858e+01,1.403124320000000091e+00,7.386171379000000536e-01
2.910000000000000142e+01,1.043670244999999941e+00,5.445707088000000251e-01
2.930000000000000071e+01,3.692923234000000110e-01,6.607251437000000172e-02
2.950000000000000000e+01,3.172729562000000114e-01,5.277603678000000048e-02
2.969999999999999929e+01,7.505604084000000453e-01,2.999056445000000126e-01
2.989999999999999858e+01,3.159731645000000144e-01,7.400270453000000470e-02
3.010000000000000142e+01,3.084708793000000004e-01,4.848294437999999679e-02
3.030000000000000071e+01,1.258227232000000084e+00,1.023872486999999998e+00
3.050000000000000000e+01,3.248045813000000059e-01,8.160267468000000080e-02
3.069999999999999929e+01,6.591474364999999613e-01,2.204235783999999865e-01
3.089999999999999858e+01,3.666516036999999950e-01,1.739509328999999938e-01
3.110000000000000142e+01,2.764820613000000260e-01,4.397369707999999877e-02
3.130000000000000071e+01,7.427672584000000189e-01,3.077013042999999781e-01
3.150000000000000000e+01,3.332564328000000020e-01,7.239630988999999628e-02
3.169999999999999929e+01,1.253464146000000001e+00,6.262787035000000335e-01
3.189999999999999858e+01,2.668656008999999996e-01,6.113768338000000191e-02
3.210000000000000142e+01,3.779630925999999946e-01,1.010166589999999948e-01
3.229999999999999716e+01,5.968928911999999976e-01,1.962123755000000080e-01
3.250000000000000000e+01,3.328898033000000090e-01,5.361578290999999968e-02
3.270000000000000284e+01,1.160177604000000029e+00,8.037243863999999904e-01
3.289999999999999858e+01,3.973071771999999724e-01,8.188131540000000153e-02
3.310000000000000142e+01,4.329306701000000257e-01,1.004385264000000055e-01
3.329999999999999716e+01,7.170629351999999734e-01,2.206481966000000128e-01
3.350000000000000000e+01,9.231074454000000040e-01,5.271284517000000003e-01
3.370000000000000284e+01,3.212458626999999955e-01,6.018711966999999718e-02
3.389999999999999858e+01,5.602973905000000476e-01,3.048115116999999819e-01
3.410000000000000142e+01,3.900503948999999859e-01,7.849153952000000045e-02
3.429999999999999716e+01,4.563161486999999794e-01,1.204196929999999943e-01
3.450000000000000000e+01,4.431498598999999983e-01,1.484305931000000078e-01
3.470000000000000284e+01,2.543757018999999731e-01,3.278995359999999776e-02
3.489999999999999858e+01,4.540079894999999865e-01,1.573462885999999950e-01
3.510000000000000142e+01,6.302550174000000061e-01,2.840990781000000132e-01
3.529999999999999716e+01,2.622215412000000190e-01,3.503572786999999827e-02
3.550000000000000000e+01,1.176970966000000063e+00,5.202800092999999571e-01
3.570000000000000284e+01,5.508336588000000145e-01,1.416568136999999949e-01
3.589999999999999858e+01,6.329589865000000426e-01,2.748851989000000162e-01
3.610000000000000142e+01,6.454473518000000132e-01,2.320235920000000007e-01
3.629999999999999716e+01,1.239850713999999909e+00,4.977923481000000039e-01
3.650000000000000000e+01,7.137974750000000146e-01,3.223678625999999992e-01
3.670000000000000284e+01,1.292718658000000076e+00,9.232575825000000069e-01
3.689999999999999858e+01,4.147413540000000065e-01,1.127482181000000055e-01
3.710000000000000142e+01,4.573702358999999773e-01,1.296583413000000073e-01
3.729999999999999716e+01,5.750723692000000442e-01,2.165971932000000100e-01
3.750000000000000000e+01,2.716539289000000079e-01,3.415216539000000273e-02
3.770000000000000284e+01,2.994243997000000101e-01,3.557285486000000274e-02
3.789999999999999858e+01,4.524961437999999725e-01,1.044056262999999984e-01
3.810000000000000142e+01,4.108278368000000125e-01,1.404579172000000042e-01
3.829999999999999716e+01,4.802765131999999770e-01,1.257458133000000089e-01
3.850000000000000000e+01,4.923958185999999793e-01,1.504003435000000055e-01
3.870000000000000284e+01,6.112928185999999542e-01,2.570524919000000130e-01
3.889999999999999858e+01,5.230640668999999576e-01,1.825825493000000077e-01
3.910000000000000142e+01,8.519246542999999727e-01,2.458786812000000044e-01
3.929999999999999716e+01,4.092310956999999583e+00,8.463115122000000046e-01
3.950000000000000000e+01,9.880025712000000127e+00,1.253509114999999952e+00
3.970000000000000284e+01,2.113972365000000053e+01,2.086017703000000001e+00
3.989999999999999858e+01,3.021563438000000090e+01,2.584171937999999891e+00
4.010000000000000142e+01,4.013810374999999908e+01,3.027303240999999812e+00
4.029999999999999716e+01,3.633829353000000140e+01,2.831142927000000142e+00
4.050000000000000000e+01,2.020051665000000085e+01,1.966420749000000079e+00
4.070000000000000284e+01,5.272079585000000179e+00,8.883357470999999617e-01
4.089999999999999858e+01,1.944845350000000028e+00,4.575939880000000071e-01
4.110000000000000142e+01,5.488045593000000499e-01,1.432568194000000128e-01
4.129999999999999716e+01,1.190593805000000005e+00,6.059307535000000300e-01
4.150000000000000000e+01,3.564764292000000001e-01,1.048857906999999950e-01
4.170000000000000284e+01,3.418422287999999809e-01,5.772075331999999837e-02
4.189999999999999858e+01,6.526444221999999629e-01,3.225942609999999933e-01
4.210000000000000142e+01,6.967667964000000547e-01,2.377411663000000008e-01
4.229999999999999716e+01,4.077936959999999833e-01,1.072921649000000005e-01
4.250000000000000000e+01,3.421640994999999852e-01,1.017394637000000046e-01
4.270000000000000284e+01,5.208195844999999879e-01,1.905874622000000018e-01
4.289999999999999858e+01,4.120643932999999981e-01,1.348795231000000094e-01
4.310000000000000142e+01,6.496889248999999644e-01,2.841611559000000176e-01
4.329999999999999716e+01,6.194512583000000294e-01,2.177271155000000125e-01
4.350000000000000000e+01,3.683546356999999882e-01,9.156557285999999962e-02
4.370000000000000284e+01,3.815290290999999723e-01,4.517096713000000319e-02
4.389999999999999858e+01,5.028988417999999960e-01,1.800700363000000137e-01
4.410000000000000142e+01,3.046891627000000158e-01,3.595440971000000291e-02
4.429999999999999716e+01,5.149096892000000203e-01,1.698784463000000133e-01
4.450000000000000000e+01,7.438392134000000322e-01,3.086357751000000094e-01
4.470000000000000284e+01,8.591511910000000363e-01,4.097097952000000043e-01
4.489999999999999858e+01,6.201515737999999667e-01,1.821365933999999909e-01
4.510000000000000142e+01,3.014743512999999986e-01,3.691212601999999815e-02
4.529999999999999716e+01,8.434667795000000412e-01,2.941279339999999798e-01
4.550000000000000000e+01,7.446218706999999659e-01,3.081444208999999934e-01
4.570000000000000284e+01,4.731048067999999995e-01,1.076042445000000014e-01
4.589999999999999858e+01,2.873675292000000270e-01,3.422580513000000185e-02
4.610000000000000142e+01,2.490327098000000017e-01,3.192512210000000156e-02
4.629999999999999716e+01,1.525016925000000079e+00,5.228658164999999691e-01
4.650000000000000000e+01,2.812229546999999830e+00,1.061379907000000067e+00
4.670000000000000284e+01,1.215039261999999987e+01,1.987891287000000062e+00
4.689999999999999858e+01,1.908262893999999932e+01,2.465609659000000065e+00
4.710000000000000142e+01,3.843991793000000001e+01,3.705087106000000130e+00
4.729999999999999716e+01,5.091752412000000305e+01,4.380928864000000367e+00
4.750000000000000000e+01,4.521433496000000218e+01,4.198972061000000089e+00
4.770000000000000284e+01,3.558161158000000057e+01,3.563120536000000005e+00
4.789999999999999858e+01,2.018062091999999907e+01,2.594755217999999974e+00
4.810000000000000142e+01,9.459898008999999774e+00,1.602296361999999919e+00
4.829999999999999716e+01,1.511151096999999943e+00,3.969168728999999951e-01
4.850000000000000000e+01,1.868639047999999914e+00,4.890921055999999933e-01
4.870000000000000284e+01,1.569500407999999902e+00,3.910004872999999770e-01
4.889999999999999858e+01,3.026332109999999798e+00,5.314014958999999649e-01
4.910000000000000142e+01,7.551338843999999995e+00,8.485242526999999813e-01
4.929999999999999716e+01,9.594595918999999640e+00,9.591284259000000256e-01
4.950000000000000000e+01,1.367154659999999922e+01,1.181275421999999908e+00
4.970000000000000284e+01,1.340462319999999963e+01,1.178001301999999972e+00
4.989999999999999858e+01,1.210493471999999926e+01,1.193714235000000068e+00
5.010000000000000142e+01,8.406699050000000284e+00,9.109321812999999768e-01
5.029999999999999716e+01,4.015332239000000136e+00,5.909829213999999720e-01
5.050000000000000000e+01,1.330260758000000099e+00,2.913967914999999742e-01
5.070000000000000284e+01,7.227486889999999997e-01,2.060735180000000111e-01
5.089999999999999858e+01,5.254602828000000114e-01,1.254820697000000040e-01
5.110000000000000142e+01,4.488541910000000135e-01,1.600864381000000058e-01
5.129999999999999716e+01,7.657676961999999588e-01,3.374423046000000204e-01
5.150000000000000000e+01,9.731555237000000247e-01,3.432028918999999734e-01
5.170000000000000284e+01,6.219570436000000369e-01,2.593969718999999952e-01
5.189999999999999858e+01,1.255745281999999907e+00,6.466983451000000160e-01
5.210000000000000142e+01,3.315545932999999779e-01,3.871153546000000167e-02
5.229999999999999716e+01,7.453117552000000368e-01,2.537745605999999765e-01
5.250000000000000000e+01,6.333050382999999561e-01,2.142928678999999892e-01
5.270000000000000284e+01,2.602604816999999904e-01,3.494768161000000317e-02
5.289999999999999858e+01,3.265055499000000250e-01,3.757628184999999704e-02
5.310000000000000142e+01,4.794490115000000219e-01,1.394579361999999934e-01
5.329999999999999716e+01,1.091768520000000020e+00,5.890422611000000197e-01
5.350000000000000000e+01,7.201668206000000350e-01,3.868838710999999986e-01
5.370000000000000284e+01,9.751152782999999991e-01,6.638910120000000026e-01
5.389999999999999858e+01,5.320287522000000102e-01,2.078989220000000138e-01
5.410000000000000142e+01,4.896926927999999957e-01,1.719504275000000026e-01
5.429999999999999716e+01,3.998326004000000156e-01,7.538723620999999986e-02
5.450000000000000000e+01,1.073653548000000013e+00,4.943584866999999883e-01
5.470000000000000284e+01,1.422195088000000052e+00,7.977417440999999831e-01
5.489999999999999858e+01,8.185594321000000395e-01,3.449282262999999737e-01
5.510000000000000142e+01,7.909931275999999567e-01,4.023076818999999915e-01
5.529999999999999716e+01,5.216716998000000549e-01,1.278757637000000058e-01
5.550000000000000000e+01,3.319640327999999752e-01,3.772521865000000307e-02
5.570000000000000284e+01,3.518097450000000070e-01,3.921829479999999757e-02
5.589999999999999858e+01,5.729676398999999920e-01,1.364699689999999965e-01
5.610000000000000142e+01,4.220319397999999778e-01,7.232764124000000405e-02
5.629999999999999716e+01,7.501341983000000546e-01,3.126048099000000025e-01
5.650000000000000000e+01,4.574307146000000102e-01,9.876354051999999828e-02
5.670000000000000284e+01,1.103502259000000096e+00,4.919266345000000151e-01
5.689999999999999858e+01,6.066227843000000508e-01,1.036474708000000022e-01
5.710000000000000142e+01,1.757179373000000044e+00,3.947072799999999937e-01
5.729999999999999716e+01,2.110110417000000016e+00,3.042252529999999733e-01
5.750000000000000000e+01,4.611612273000000428e+00,6.174922448999999869e-01
5.770000000000000284e+01,7.442517234000000315e+00,7.192504319000000423e-01
5.789999999999999858e+01,8.650863580999999414e+00,7.739789287999999656e-01
5.810000000000000142e+01,8.159397852999999756e+00,7.808747247999999752e-01
5.829999999999999716e+01,7.419407462999999758e+00,7.712428268000000031e-01
5.850000000000000000e+01,4.686234135000000300e+00,5.989925928999999538e-01
5.870000000000000284e+01,2.472948758999999885e+00,3.606520027999999822e-01
5.889999999999999858e+01,1.472505822000000020e+00,3.020385509999999885e-01
5.910000000000000142e+01,1.030724240999999930e+00,5.061319213999999622e-01
5.929999999999999716e+01,1.032218939999999918e+00,3.031187495000000065e-01
5.950000000000000000e+01,6.786222976000000351e-01,2.513853186000000184e-01
5.970000000000000284e+01,6.829835603999999671e-01,2.778430662999999967e-01
5.989999999999999858e+01,6.565911302000000394e-01,2.359855550000000135e-01
6.010000000000000142e+01,1.478937546000000047e+00,5.140898025000000260e-01
6.029999999999999716e+01,7.276447042000000476e-01,2.304371896000000086e-01
6.050000000000000000e+01,6.887856463999999512e-01,2.274224197999999975e-01
6.070000000000000284e+01,5.151377027000000330e-01,1.857170069000000090e-01
6.089999999999999858e+01,9.154614932000000316e-01,3.433951030999999876e-01
6.110000000000000142e+01,3.073459025999999983e-01,3.513475281999999672e-02
6.129999999999999716e+01,3.846765568000000135e-01,4.343924908999999973e-02
6.150000000000000000e+01,5.259129869999999984e-01,2.166744080000000128e-01
6.170000000000000284e+01,7.196757114999999816e-01,2.224923387999999946e-01
6.189999999999999858e+01,6.526601032000000080e-01,2.983297946999999839e-01
6.210000000000000142e+01,4.057222568000000140e-01,7.610322944000000311e-02
6.229999999999999716e+01,4.949286525000000103e-01,1.365784411000000031e-01
6.250000000000000000e+01,1.373739569000000049e+00,4.840955125999999997e-01
6.270000000000000284e+01,1.409011312999999932e+00,5.527008628999999784e-01
6.289999999999999858e+01,3.880213220999999990e+00,8.668865355999999522e-01
6.310000000000000142e+01,9.408871195999999770e+00,1.474568160000000017e+00
6.329999999999999716e+01,1.446310103000000069e+01,1.939854178999999901e+00
6.350000000000000000e+01,2.191714464000000007e+01,2.427487938000000067e+00
6.370000000000000284e+01,2.651962487000000124e+01,2.654997913999999959e+00
6.389999999999999858e+01,2.917165242000000092e+01,2.861957557000000207e+00
6.409999999999999432e+01,2.460272545000000122e+01,2.592905388999999783e+00
6.429999999999999716e+01,1.637936149000000086e+01,2.023680578000000008e+00
6.450000000000000000e+01,9.606907186999999126e+00,1.487356477000000066e+00
6.470000000000000284e+01,8.795345384999999183e+00,1.463006339999999961e+00
6.490000000000000568e+01,8.623680964000000060e+00,1.317533590000000032e+00
6.509999999999999432e+01,1.393831302000000072e+01,1.780036034999999961e+00
6.529999999999999716e+01,2.026946716999999865e+01,2.289076156999999778e+00
6.550000000000000000e+01,2.517218215000000114e+01,2.539071982999999921e+00
6.570000000000000284e+01,2.470827730999999972e+01,2.422950689999999963e+00
6.590000000000000568e+01,2.349311734999999857e+01,2.473850875000000116e+00
6.609999999999999432e+01,1.651702600000000132e+01,1.989865133999999980e+00
6.629999999999999716e+01,1.212865466000000048e+01,1.664241314999999943e+00
6.650000000000000000e+01,5.400284425999999804e+00,1.073978011999999982e+00
6.670000000000000284e+01,2.119467628999999853e+00,6.086404156000000398e-01
6.690000000000000568e+01,1.389019191999999903e+00,5.157337331000000358e-01
6.709999999999999432e+01,3.553657877999999992e-01,4.781655682000000157e-02
6.729999999999999716e+01,4.545375531999999996e-01,7.741478123999999406e-02
6.750000000000000000e+01,5.042698665000000524e-01,1.065085944000000034e-01
6.770000000000000284e+01,5.750130499000000173e-01,1.498376882000000132e-01
6.790000000000000568e+01,3.642194628000000045e-01,4.072209279999999820e-02
6.809999999999999432e+01,3.963294131000000275e-01,4.254542877999999834e-02
6.829999999999999716e+01,5.786062502000000052e-01,2.943233134000000084e-01
6.850000000000000000e+01,5.382844162000000043e-01,1.442705096000000131e-01
6.870000000000000284e+01,3.780336069999999937e-01,4.107352186999999738e-02
6.890000000000000568e+01,3.566539918000000142e-01,5.842622853999999977e-02
6.909999999999999432e+01,1.122575792999999988e+00,5.261777033000000214e-01
6.929999999999999716e+01,1.088935742000000095e+00,4.767341999999999969e-01
6.950000000000000000e+01,8.905675279000000444e-01,5.978142143000000353e-01
6.970000000000000284e+01,4.271377893000000148e-01,1.347475236000000021e-01
6.990000000000000568e+01,6.861887426999999651e-01,2.393335543000000010e-01
7.009999999999999432e+01,9.761604675999999703e-01,4.442143839000000094e-01
7.029999999999999716e+01,6.966841796999999614e-01,2.353942831999999985e-01
7.050000000000000000e+01,5.280623406000000131e-01,1.730612089999999936e-01
7.070000000000000284e+01,3.671751376999999872e-01,4.735648724000000170e-02
7.090000000000000568e+01,6.496486291999999940e-01,2.431762148999999928e-01
7.109999999999999432e+01,3.639515877000000232e-01,4.027826580999999823e-02
7.129999999999999716e+01,7.913035279000000255e-01,3.524401290999999992e-01
7.150000000000000000e+01,6.285407240999999479e-01,1.713195533999999909e-01
7.170000000000000284e+01,2.106357592999999806e+00,5.130598064000000402e-01
7.190000000000000568e+01,3.450120028999999811e+00,7.466820025000000527e-01
7.209999999999999432e+01,7.682107131999999616e+00,1.275912383000000094e+00
7.229999999999999716e+01,9.761352765999999903e+00,1.444549899999999942e+00
7.250000000000000000e+01,1.483990513000000000e+01,1.826732494999999901e+00
7.270000000000000284e+01,1.550674923999999955e+01,1.912825597000000100e+00
7.290000000000000568e+01,2.255748320000000007e+01,2.318360880999999818e+00
7.309999999999999432e+01,2.196316310999999999e+01,2.422475420000000046e+00
7.329999999999999716e+01,1.544904498000000004e+01,1.901387979999999978e+00
7.350000000000000000e+01,1.097973441000000072e+01,1.591106727000000109e+00
7.370000000000000284e+01,6.178222918000000341e+00,1.114674069999999961e+00
7.390000000000000568e+01,4.591045980999999720e+00,9.533938308999999611e-01
7.409999999999999432e+01,9.658573913000000344e-01,2.610556934000000107e-01
7.429999999999999716e+01,7.571036824000000331e-01,2.484607359999999876e-01
7.450000000000000000e+01,4.750069372999999873e-01,1.302543502999999880e-01
7.470000000000000284e+01,8.051754445000000038e-01,3.239836442999999844e-01
7.490000000000000568e+01,7.493531259000000277e-01,3.787085065999999944e-01
7.509999999999999432e+01,3.658447173000000108e-01,6.727253284999999694e-02
7.529999999999999716e+01,6.037475916000000220e-01,1.565756366999999927e-01
7.550000000000000000e+01,3.798279112999999874e-01,6.154237907000000007e-02
7.570000000000000284e+01,8.683062606000000461e-01,2.701438147999999928e-01
7.590000000000000568e+01,3.672072927999999736e-01,4.152445821999999759e-02
7.609999999999999432e+01,8.263313123000000093e-01,3.060957802000000005e-01
7.629999999999999716e+01,4.214630666999999997e-01,5.878302757000000017e-02
7.650000000000000000e+01,8.115219828999999940e-01,2.099387631000000087e-01
7.670000000000000284e+01,5.500401593000000533e-01,1.254294400000000032e-01
7.690000000000000568e+01,2.437205903999999812e+00,6.659923824000000270e-01
7.709999999999999432e+01,2.908346126000000087e+00,6.286607507000000483e-01
7.729999999999999716e+01,7.046998064000000284e+00,1.128517500000000062e+00
7.750000000000000000e+01,1.518848003999999996e+01,1.645963064999999892e+00
7.770000000000000284e+01,1.842478562000000153e+01,1.853756292999999999e+00
7.790000000000000568e+01,2.252111934999999932e+01,1.968350277999999953e+00
7.809999999999999432e+01,2.439669457999999835e+01,2.126211558000000057e+00
7.829999999999999716e+01,2.211246072999999868e+01,2.003242038999999863e+00
7.850000000000000000e+01,1.871345960000000019e+01,1.782644133000000020e+00
7.870000000000000284e+01,1.146981566000000008e+01,1.316518497999999981e+00
7.890000000000000568e+01,9.977136437000000413e+00,1.307575007000000067e+00
7.909999999999999432e+01,5.054186623999999739e+00,8.069606388000000186e-01
7.929999999999999716e+01,3.381138571999999787e+00,5.409419026999999769e-01
7.950000000000000000e+01,2.326512184999999899e+00,3.942041859000000037e-01
7.970000000000000284e+01,1.710739696000000087e+00,2.392744837000000124e-01
7.990000000000000568e+01,1.935587297000000095e+00,4.113575260999999816e-01
8.009999999999999432e+01,1.315253467000000009e+00,2.308109348999999866e-01
8.029999999999999716e+01,1.455999244000000026e+00,3.249663161999999939e-01
8.050000000000000000e+01,9.424525540000000534e-01,2.802416188999999891e-01
8.070000000000000284e+01,1.118711585000000008e+00,4.645199647000000098e-01
8.090000000000000568e+01,7.429475356000000419e-01,2.781198770000000153e-01
8.109999999999999432e+01,5.071234008999999654e-01,8.150406134000000302e-02
8.129999999999999716e+01,3.491484187000000183e-01,3.961675432999999663e-02
8.150000000000000000e+01,3.473319990000000024e-01,3.935382342000000311e-02
8.170000000000000284e+01,4.323142052999999763e-01,1.090212304999999965e-01
8.190000000000000568e+01,4.810835372999999748e-01,1.343953610999999992e-01
8.209999999999999432e+01,5.551497871999999667e-01,1.040704994999999966e-01
8.229999999999999716e+01,5.681770968999999560e-01,1.656125546999999976e-01
8.250000000000000000e+01,4.794061768999999806e-01,1.031226801000000026e-01
8.270000000000000284e+01,5.427688405999999688e-01,1.884705748000000125e-01
8.290000000000000568e+01,7.835933214000000424e-01,3.474120399000000248e-01
8.309999999999999432e+01,6.377223240999999598e-01,3.421463244999999875e-01
8.329999999999999716e+01,1.043257061000000041e+00,3.417624879000000226e-01
8.350000000000000000e+01,6.657939856000000267e-01,1.853686032000000095e-01
8.370000000000000284e+01,3.371770058999999931e-01,3.903685766000000029e-02
8.390000000000000568e+01,8.815099629999999520e-01,3.024936960999999869e-01
8.409999999999999432e+01,3.229014394999999982e-01,3.883738694000000297e-02
8.429999999999999716e+01,4.740373733000000089e-01,9.965499579000000607e-02
8.450000000000000000e+01,1.100974665999999935e+00,7.030243010000000181e-01
8.470000000000000284e+01,9.389746324000000088e-01,2.934260266000000006e-01
8.490000000000000568e+01,5.791247888999999649e-01,1.476173090000000021e-01
8.509999999999999432e+01,3.984834859999999979e-01,4.268412846999999899e-02
8.529999999999999716e+01,1.191417583000000002e+00,2.964630366000000072e-01
8.550000000000000000e+01,2.485370765999999954e+00,4.667750372999999731e-01
8.570000000000000284e+01,3.155609872999999954e+00,5.533771541999999988e-01
8.590000000000000568e+01,3.406199990999999816e+00,5.353268750999999881e-01
8.609999999999999432e+01,5.552800034999999745e+00,8.066396641999999950e-01
8.629999999999999716e+01,7.628574322999999602e+00,8.961448556000000121e-01
8.650000000000000000e+01,6.593158983000000362e+00,7.727552655999999631e-01
8.670000000000000284e+01,7.419652747999999853e+00,8.651895893000000060e-01
8.690000000000000568e+01,7.201030499999999890e+00,8.422504668000000416e-01
8.709999999999999432e+01,6.340411851999999904e+00,7.946314829999999718e-01
8.729999999999999716e+01,3.591187183999999810e+00,5.625274385999999849e-01
8.750000000000000000e+01,2.367406047999999874e+00,4.322504623999999795e-01
8.770000000000000284e+01,2.390873582000000219e+00,5.339318731000000096e-01
8.790000000000000568e+01,1.428873993000000064e+00,4.006112163000000170e-01
8.809999999999999432e+01,1.118106107000000016e+00,3.175443280999999951e-01
8.829999999999999716e+01,6.055843831999999649e-01,1.393123944999999919e-01
8.850000000000000000e+01,1.347307451000000045e+00,4.736305047000000101e-01
8.870000000000000284e+01,9.915611506999999492e-01,4.321938204999999922e-01
8.890000000000000568e+01,5.054064800999999996e-01,1.733469974000000080e-01
8.909999999999999432e+01,6.991770581999999790e-01,2.016040933999999896e-01
8.929999999999999716e+01,5.806836163999999911e-01,3.057625192999999797e-01
8.950000000000000000e+01,8.058078965999999621e-01,3.603887809999999914e-01
8.970000000000000284e+01,4.178059968000000235e-01,4.370404918999999666e-02
8.990000000000000568e+01,5.200056508999999494e-01,1.146508259000000030e-01
9.009999999999999432e+01,1.287618372000000067e+00,4.077447451999999806e-01
9.029999999999999716e+01,2.438314747000000171e+00,9.242468449999999835e-01
9.050000000000000000e+01,6.395376831000000095e+00,1.513074433000000107e+00
9.070000000000000284e+01,8.851982877999999388e+00,1.768443698000000008e+00
9.090000000000000568e+01,1.500038537000000005e+01,2.388448518000000131e+00
9.109999999999999432e+01,2.305426105000000092e+01,3.098314084000000079e+00
9.129999999999999716e+01,1.935022101999999933e+01,2.620344363000000065e+00
9.150000000000000000e+01,2.517790448999999953e+01,3.119514008999999977e+00
9.170000000000000284e+01,2.293169787000000071e+01,2.813533834999999872e+00
9.190000000000000568e+01,2.451272244000000100e+01,3.086971807999999928e+00
9.209999999999999432e+01,2.299406755000000047e+01,2.906565269000000118e+00
9.229999999999999716e+01,2.372689421000000110e+01,2.841565827999999794e+00
9.250000000000000000e+01,1.789540015000000039e+01,2.296675475999999883e+00
9.270000000000000284e+01,2.035167599000000038e+01,2.255876450000000144e+00
9.290000000000000568e+01,1.726928028000000026e+01,2.016252874000000084e+00
9.309999999999999432e+01,1.732404421000000028e+01,1.796272963000000056e+00
9.329999999999999716e+01,1.905258321999999893e+01,1.759281101000000014e+00
9.350000000000000000e+01,1.685579750999999860e+01,1.660658607000000009e+00
9.370000000000000284e+01,1.138994757000000035e+01,1.326733127000000012e+00
9.390000000000000568e+01,1.252020672999999995e+01,1.378140112999999944e+00
9.409999999999999432e+01,9.659555894000000364e+00,1.174896119000000017e+00
9.429999999999999716e+01,6.559596943999999930e+00,1.052197695000000044e+00
9.450000000000000000e+01,4.674047679000000066e+00,8.159782075999999496e-01
9.470000000000000284e+01,2.953294151000000145e+00,6.600498675999999509e-01
9.490000000000000568e+01,1.237739512000000097e+00,3.431169008000000131e-01
9.509999999999999432e+01,1.760002354999999907e+00,4.669499178000000028e-01
9.529999999999999716e+01,1.022750633000000020e+00,4.714672158000000057e-01
9.550000000000000000e+01,1.178951988999999978e+00,3.615285663000000205e-01
9.570000000000000284e+01,1.120005053999999944e+00,4.497423568000000205e-01
9.590000000000000568e+01,4.149634253000000217e-01,6.462068373000000310e-02
9.609999999999999432e+01,8.018596755000000353e-01,3.122590291999999823e-01
9.629999999999999716e+01,7.727722870000000022e-01,3.282898718000000216e-01
9.650000000000000000e+01,8.860266936999999787e-01,4.249274498000000233e-01
9.670000000000000284e+01,6.197431547999999735e-01,2.329114216000000015e-01
9.690000000000000568e+01,3.305933722000000130e-01,7.511388815000000219e-02
9.709999999999999432e+01,6.698237247999999644e-01,2.375600156000000074e-01
9.729999999999999716e+01,4.826736508000000203e-01,9.136424296999999528e-02
9.750000000000000000e+01,5.073058873000000357e-01,1.609529648999999951e-01
9.770000000000000284e+01,5.327625944999999641e-01,1.389665576000000125e-01
9.790000000000000568e+01,1.134428095000000081e+00,4.217545697999999788e-01
9.809999999999999432e+01,5.332868109999999717e-01,1.361289720999999953e-01
9.829999999999999716e+01,1.009468758999999993e+00,3.702922439999999926e-01
9.850000000000000000e+01,1.082024443999999974e+00,3.118818993999999956e-01
9.870000000000000284e+01,1.576844410000000085e+00,4.007022445999999793e-01
9.890000000000000568e+01,3.472433699999999845e+00,7.479305800000000115e-01
9.909999999999999432e+01,4.714804145999999641e+00,8.718569374000000316e-01
9.929999999999999716e+01,5.675060678000000358e+00,9.989112898999999990e-01
9.950000000000000000e+01,9.175588525000000217e+00,1.274008765000000043e+00
9.970000000000000284e+01,9.516947233999999867e+00,1.295003574000000102e+00
9.990000000000000568e+01,9.390279411999999937e+00,1.286484380999999955e+00
