x_axis,Intensity,Error
1.009999999999999964e+01,2.794583005000000142e+01,3.001285125999999970e+00
1.030000000000000071e+01,2.295543467999999976e+01,2.611020699000000000e+00
1.050000000000000000e+01,2.197312889999999896e+01,2.821222251000000014e+00
1.069999999999999929e+01,1.945357570999999908e+01,2.500092727000000181e+00
1.090000000000000036e+01,2.223958689000000177e+01,2.766882294000000186e+00
1.109999999999999964e+01,2.261882313999999994e+01,2.636130936999999896e+00
1.130000000000000071e+01,2.198571815000000029e+01,2.599734450000000141e+00
1.150000000000000000e+01,2.092955759999999898e+01,2.680322936000000045e+00
1.169999999999999929e+01,2.859844920999999829e+01,2.982550075999999883e+00
1.190000000000000036e+01,2.922488750000000124e+01,3.080052085999999800e+00
1.209999999999999964e+01,2.582891181999999830e+01,2.803616875999999980e+00
1.230000000000000071e+01,2.582526168000000055e+01,2.888466976000000130e+00
1.250000000000000000e+01,2.135134869999999907e+01,2.555785843999999862e+00
1.269999999999999929e+01,2.137273894000000141e+01,2.539219199000000149e+00
1.290000000000000036e+01,2.285004998999999870e+01,2.740557513999999806e+00
1.309999999999999964e+01,2.605912603000000161e+01,2.973209200999999968e+00
1.330000000000000071e+01,2.855551901000000115e+01,3.032221772999999843e+00
1.350000000000000000e+01,3.152079711000000017e+01,3.217622759999999804e+00
1.369999999999999929e+01,2.420739999999999981e+01,2.727891493000000001e+00
1.390000000000000036e+01,2.330660225000000096e+01,2.785079860999999823e+00
1.409999999999999964e+01,2.890036393000000103e+01,2.988900887999999867e+00
1.430000000000000071e+01,2.757297390000000092e+01,3.004659376000000215e+00
1.450000000000000000e+01,3.062903000000000020e+01,3.126097356999999910e+00
1.469999999999999929e+01,3.531476075999999864e+01,3.421328683000000037e+00
1.490000000000000036e+01,3.183232529000000000e+01,3.245525891999999857e+00
1.509999999999999964e+01,2.877262818999999894e+01,2.947581961000000028e+00
1.530000000000000071e+01,2.992133988000000144e+01,3.201489378000000219e+00
1.550000000000000000e+01,2.608142780000000016e+01,2.877776519999999838e+00
1.569999999999999929e+01,3.574915184000000323e+01,3.463081321000000212e+00
1.590000000000000036e+01,3.746289786999999905e+01,3.532300431999999990e+00
1.610000000000000142e+01,2.963250143999999864e+01,3.088525306999999831e+00
1.630000000000000071e+01,3.435767123000000112e+01,3.402171710000000182e+00
1.650000000000000000e+01,2.730542738000000114e+01,2.908598061999999818e+00
1.669999999999999929e+01,2.870059488000000059e+01,3.064661544999999876e+00
1.689999999999999858e+01,2.709589803000000074e+01,2.884499335000000109e+00
1.710000000000000142e+01,2.750491940999999940e+01,2.874421304999999816e+00
1.730000000000000071e+01,3.329829494999999895e+01,3.495370230999999883e+00
1.750000000000000000e+01,2.909872599999999920e+01,2.980533185000000085e+00
1.769999999999999929e+01,2.671863322999999824e+01,2.977980657999999892e+00
1.789999999999999858e+01,3.101999093999999957e+01,3.094092279999999917e+00
1.810000000000000142e+01,3.180128772999999853e+01,3.272296920000000053e+00
1.830000000000000071e+01,2.961786696000000063e+01,3.082131045000000125e+00
1.850000000000000000e+01,3.030933050999999878e+01,3.161090241000000134e+00
1.869999999999999929e+01,2.774850331000000025e+01,2.920973682000000071e+00
1.889999999999999858e+01,3.511591921000000127e+01,3.329202502999999869e+00
1.910000000000000142e+01,2.667530849999999987e+01,2.958804814000000061e+00
1.930000000000000071e+01,3.320416397999999703e+01,3.322086002999999899e+00
1.950000000000000000e+01,4.015642117000000155e+01,3.675081889999999962e+00
1.969999999999999929e+01,2.812057923000000059e+01,2.997207860000000057e+00
1.989999999999999858e+01,2.832846883999999932e+01,2.913387547000000133e+00
2.010000000000000142e+01,3.493668720000000150e+01,3.372695108999999913e+00
2.030000000000000071e+01,3.660018629000000345e+01,3.415558496000000055e+00
2.050000000000000000e+01,3.376106726999999808e+01,3.417320514000000031e+00
2.069999999999999929e+01,3.242691408999999680e+01,3.193822517000000083e+00
2.089999999999999858e+01,3.002850640000000126e+01,2.950918394999999972e+00
2.110000000000000142e+01,3.847101903000000078e+01,3.577401346999999898e+00
2.130000000000000071e+01,3.257932831000000107e+01,3.162920449000000023e+00
2.150000000000000000e+01,3.634857488000000103e+01,3.311667179000000072e+00
2.169999999999999929e+01,3.434597750999999732e+01,3.188306508000000150e+00
2.189999999999999858e+01,3.937394297000000165e+01,3.505075151999999861e+00
2.210000000000000142e+01,3.676676250999999951e+01,3.345096187999999859e+00
2.230000000000000071e+01,3.771694549000000052e+01,3.457451292000000009e+00
2.250000000000000000e+01,3.306443246999999985e+01,3.213662053000000185e+00
2.269999999999999929e+01,3.882211597999999952e+01,3.395868209000000082e+00
2.289999999999999858e+01,3.777743500999999782e+01,3.483617179999999980e+00
2.310000000000000142e+01,3.278060811000000285e+01,3.315106838000000167e+00
2.330000000000000071e+01,3.521081173000000319e+01,3.284251393999999991e+00
2.350000000000000000e+01,3.739998847999999754e+01,3.464326915000000007e+00
2.369999999999999929e+01,4.028017125000000220e+01,3.632092343000000056e+00
2.389999999999999858e+01,2.926648515000000117e+01,3.058666542000000099e+00
2.410000000000000142e+01,4.096076496999999961e+01,3.715971045999999944e+00
2.430000000000000071e+01,4.395929283000000254e+01,3.880195904999999890e+00
2.450000000000000000e+01,3.404247474999999667e+01,3.279993167999999848e+00
2.469999999999999929e+01,3.708764672000000218e+01,3.505202890000000071e+00
2.489999999999999858e+01,3.680687286999999941e+01,3.500120250999999794e+00
2.510000000000000142e+01,4.182422135000000196e+01,3.588529137000000091e+00
2.530000000000000071e+01,3.863656473000000346e+01,3.451356972000000134e+00
2.550000000000000000e+01,3.859496320000000225e+01,3.575576933999999873e+00
2.569999999999999929e+01,3.715324151000000086e+01,3.353726078000000221e+00
2.589999999999999858e+01,3.481477685000000122e+01,3.317856910999999798e+00
2.610000000000000142e+01,3.738589585999999798e+01,3.441970453000000152e+00
2.630000000000000071e+01,4.067722186999999678e+01,3.656611811999999961e+00
2.650000000000000000e+01,4.126903423000000259e+01,3.650959472999999900e+00
2.669999999999999929e+01,4.256859120000000019e+01,3.684395483999999943e+00
2.689999999999999858e+01,4.239138770999999650e+01,3.677792812999999938e+00
2.710000000000000142e+01,3.889138059999999797e+01,3.542613671999999880e+00
2.730000000000000071e+01,4.141281173000000138e+01,3.819840795999999816e+00
2.750000000000000000e+01,4.385416951999999924e+01,3.879576462999999809e+00
2.769999999999999929e+01,4.487974827000000033e+01,3.783610346000000124e+00
2.789999999999999858e+01,3.714017717000000118e+01,3.463583637999999798e+00
2.810000000000000142e+01,3.911428028000000268e+01,3.433843937999999874e+00
2.830000000000000071e+01,4.074676274000000120e+01,3.582987825000000015e+00
2.850000000000000000e+01,4.484431218999999658e+01,3.771324272000000200e+00
2.869999999999999929e+01,3.764401741999999729e+01,3.341359830000000031e+00
2.889999999999999858e+01,4.422077320999999728e+01,3.573529634999999871e+00
2.910000000000000142e+01,3.859914513999999741e+01,3.501850938000000024e+00
2.930000000000000071e+01,4.231216085999999876e+01,3.650665506000000171e+00
2.950000000000000000e+01,4.250270494000000099e+01,3.709319373000000031e+00
2.969999999999999929e+01,4.433394281000000348e+01,3.716299846000000073e+00
2.989999999999999858e+01,4.314038951999999938e+01,3.594749665000000149e+00
3.010000000000000142e+01,4.066871545000000054e+01,3.546429471000000166e+00
3.030000000000000071e+01,4.311910714999999783e+01,3.708121821999999845e+00
3.050000000000000000e+01,4.905316605000000152e+01,4.040998845999999922e+00
3.069999999999999929e+01,4.723927074000000204e+01,3.926824083000000076e+00
3.089999999999999858e+01,4.171671817000000004e+01,3.598480084000000190e+00
3.110000000000000142e+01,4.359032257999999871e+01,3.688300805999999987e+00
3.130000000000000071e+01,4.707490839999999821e+01,3.826448559000000138e+00
3.150000000000000000e+01,4.436116939000000059e+01,3.784596936999999883e+00
3.169999999999999929e+01,4.613226221000000038e+01,3.735931756999999909e+00
3.189999999999999858e+01,4.410180551999999921e+01,3.693631776000000144e+00
3.210000000000000142e+01,3.625113405999999827e+01,3.306319516999999930e+00
3.229999999999999716e+01,4.781761164000000264e+01,3.836267664999999827e+00
3.250000000000000000e+01,4.446124968000000166e+01,3.834385892999999879e+00
3.270000000000000284e+01,4.703693863000000164e+01,3.832134964999999838e+00
3.289999999999999858e+01,4.659467576000000122e+01,4.053471961999999706e+00
3.310000000000000142e+01,4.662122519999999781e+01,3.790791034000000170e+00
3.329999999999999716e+01,4.986317362999999858e+01,3.883254645000000060e+00
3.350000000000000000e+01,5.118401842000000102e+01,4.069557526999999730e+00
3.370000000000000284e+01,4.009808805000000120e+01,3.456965435999999947e+00
3.389999999999999858e+01,4.924611107999999859e+01,3.904371257999999845e+00
3.410000000000000142e+01,5.122149588999999992e+01,4.177716489999999894e+00
3.429999999999999716e+01,4.624013515000000041e+01,3.889560569999999995e+00
3.450000000000000000e+01,4.434211899999999673e+01,3.864000140999999999e+00
3.470000000000000284e+01,4.697260211999999768e+01,3.889311295000000168e+00
3.489999999999999858e+01,4.576716205000000315e+01,3.913595041000000219e+00
3.510000000000000142e+01,4.843773181000000250e+01,3.766123356000000033e+00
3.529999999999999716e+01,4.645283850999999942e+01,3.683083793000000217e+00
3.550000000000000000e+01,4.859024823000000026e+01,3.933323319999999956e+00
3.570000000000000284e+01,5.064212330000000151e+01,4.046635334000000306e+00
3.589999999999999858e+01,5.457022338000000161e+01,4.226627246999999699e+00
3.610000000000000142e+01,4.908517638000000005e+01,3.986308533999999959e+00
3.629999999999999716e+01,4.788632556000000307e+01,3.849660674999999976e+00
3.650000000000000000e+01,5.455269106000000079e+01,4.147924465000000005e+00
3.670000000000000284e+01,5.054406608000000034e+01,4.058757109000000085e+00
3.689999999999999858e+01,4.965687374000000176e+01,3.985849653999999909e+00
3.710000000000000142e+01,5.309359647000000137e+01,4.077414439000000002e+00
3.729999999999999716e+01,4.404014666999999861e+01,3.694587558999999910e+00
3.750000000000000000e+01,4.388748803000000009e+01,3.782386792000000053e+00
3.770000000000000284e+01,4.991682008000000081e+01,3.990677708999999851e+00
3.789999999999999858e+01,5.602707485999999903e+01,4.272120604000000377e+00
3.810000000000000142e+01,4.680539906999999999e+01,3.811613581000000028e+00
3.829999999999999716e+01,5.204760989999999765e+01,3.965921933000000177e+00
3.850000000000000000e+01,5.202884444000000030e+01,3.967250846999999858e+00
3.870000000000000284e+01,5.156529745999999648e+01,3.947993791000000030e+00
3.889999999999999858e+01,5.386503609999999753e+01,4.119037175999999967e+00
3.910000000000000142e+01,5.377211928999999913e+01,4.060595795000000230e+00
3.929999999999999716e+01,4.857151817999999821e+01,3.896802876999999832e+00
3.950000000000000000e+01,6.019039365999999802e+01,4.505230881000000132e+00
3.970000000000000284e+01,5.868696846000000278e+01,4.409323843000000132e+00
3.989999999999999858e+01,5.084739444000000219e+01,3.919962540000000217e+00
4.010000000000000142e+01,5.194823665999999918e+01,3.973828675000000032e+00
4.029999999999999716e+01,5.443778381999999993e+01,4.217533615999999874e+00
4.050000000000000000e+01,5.284336754000000269e+01,4.164008865999999642e+00
4.070000000000000284e+01,5.588063565000000210e+01,4.337960996999999708e+00
4.089999999999999858e+01,4.392104161000000317e+01,3.675395722999999837e+00
4.110000000000000142e+01,6.077945755999999733e+01,4.424047773999999933e+00
4.129999999999999716e+01,5.341654288000000150e+01,4.087871904000000001e+00
4.150000000000000000e+01,5.345496711999999917e+01,4.099877116000000044e+00
4.170000000000000284e+01,5.474659462999999704e+01,4.089565129000000354e+00
4.189999999999999858e+01,5.509326433999999750e+01,4.146704994000000255e+00
4.210000000000000142e+01,5.204762429000000168e+01,3.981070680000000195e+00
4.229999999999999716e+01,7.146444854000000646e+01,4.706708071999999632e+00
4.250000000000000000e+01,9.204704814000000113e+01,5.299345850999999996e+00
4.270000000000000284e+01,1.476167633000000023e+02,7.015214696000000139e+00
4.289999999999999858e+01,1.789755328999999904e+02,7.839749778999999918e+00
4.310000000000000142e+01,2.293933407000000102e+02,9.185113473999999556e+00
4.329999999999999716e+01,2.051460838000000138e+02,8.554877412999999819e+00
4.350000000000000000e+01,1.368746385999999973e+02,6.678470979000000085e+00
4.370000000000000284e+01,9.424848405000000184e+01,5.349702767000000136e+00
4.389999999999999858e+01,6.913420326000000671e+01,4.507729959999999814e+00
4.410000000000000142e+01,5.355439411999999777e+01,4.168644301999999691e+00
4.429999999999999716e+01,5.896600936000000104e+01,4.377790408000000077e+00
4.450000000000000000e+01,5.926518904000000276e+01,4.374570875999999942e+00
4.470000000000000284e+01,5.561016897999999742e+01,4.214464304999999911e+00
4.489999999999999858e+01,5.459340252999999876e+01,4.176232312999999863e+00
4.510000000000000142e+01,5.717029923999999852e+01,4.181721789000000022e+00
4.529999999999999716e+01,4.905046950999999922e+01,3.877660232999999845e+00
4.550000000000000000e+01,6.037176205000000095e+01,4.368782050000000083e+00
4.570000000000000284e+01,5.400896717999999908e+01,4.128482937000000241e+00
4.589999999999999858e+01,5.674182239000000294e+01,4.194534803999999895e+00
4.610000000000000142e+01,5.482199267000000020e+01,4.201550209999999730e+00
4.629999999999999716e+01,6.694380560999999830e+01,4.661976626999999596e+00
4.650000000000000000e+01,6.303593923999999760e+01,4.586816658000000047e+00
4.670000000000000284e+01,5.282845472000000342e+01,4.040807144999999601e+00
4.689999999999999858e+01,5.682941402000000153e+01,4.265976082999999974e+00
4.710000000000000142e+01,6.250503738999999825e+01,4.510036587000000097e+00
4.729999999999999716e+01,6.659663888000000043e+01,4.703692125999999973e+00
4.750000000000000000e+01,5.688186610999999715e+01,4.244501168000000213e+00
4.770000000000000284e+01,6.040558805999999947e+01,4.279332407000000060e+00
4.789999999999999858e+01,5.087341477999999739e+01,3.852724256000000125e+00
4.810000000000000142e+01,6.098232269999999744e+01,4.330937953000000284e+00
4.829999999999999716e+01,5.922191150999999820e+01,4.318655650000000179e+00
4.850000000000000000e+01,6.474957071999999414e+01,4.553730288999999765e+00
4.870000000000000284e+01,5.684102817000000130e+01,4.232309743000000068e+00
4.889999999999999858e+01,5.816312100999999757e+01,4.266554325000000425e+00
4.910000000000000142e+01,6.372882667999999740e+01,4.546534979999999670e+00
4.929999999999999716e+01,6.455183458999999857e+01,4.523488301999999628e+00
4.950000000000000000e+01,6.378062271000000294e+01,4.249478368000000117e+00
4.970000000000000284e+01,1.005672430000000048e+02,5.354265732000000000e+00
4.989999999999999858e+01,1.241057346000000052e+02,5.884771959000000052e+00
5.010000000000000142e+01,1.559536459999999920e+02,6.571037893999999824e+00
5.029999999999999716e+01,1.428874475000000075e+02,6.209308344000000091e+00
5.050000000000000000e+01,1.285795258999999930e+02,5.876411434999999628e+00
5.070000000000000284e+01,9.221700873999999715e+01,5.136792011999999907e+00
5.089999999999999858e+01,7.237948932000000468e+01,4.556296453999999940e+00
5.110000000000000142e+01,7.108917033000000174e+01,4.658556098000000034e+00
5.129999999999999716e+01,6.744404778999999905e+01,4.619476788000000056e+00
5.150000000000000000e+01,6.020349421000000234e+01,4.438231508000000325e+00
5.170000000000000284e+01,6.401099963999999432e+01,4.501051966000000348e+00
5.189999999999999858e+01,6.009572578000000220e+01,4.406101818999999864e+00
5.210000000000000142e+01,5.619525086000000158e+01,4.089464390999999921e+00
5.229999999999999716e+01,6.955758452000000602e+01,4.784805882999999760e+00
5.250000000000000000e+01,6.080570981000000330e+01,4.400331762000000424e+00
5.270000000000000284e+01,6.533346160000000680e+01,4.631614875000000353e+00
5.289999999999999858e+01,6.310780018999999896e+01,4.425182597000000051e+00
5.310000000000000142e+01,5.920509373000000153e+01,4.254010820999999609e+00
5.329999999999999716e+01,6.584926545000000431e+01,4.513642778000000355e+00
5.350000000000000000e+01,6.383327187999999808e+01,4.493827999999999712e+00
5.370000000000000284e+01,6.131526282000000094e+01,4.376823332999999927e+00
5.389999999999999858e+01,5.793031159000000230e+01,4.364753653000000178e+00
5.410000000000000142e+01,7.078251204999999402e+01,4.685483867000000302e+00
5.429999999999999716e+01,6.144511872999999724e+01,4.370798169999999594e+00
5.450000000000000000e+01,6.671403700999999842e+01,4.884746456000000236e+00
5.470000000000000284e+01,6.721293642999999918e+01,4.586932936000000183e+00
5.489999999999999858e+01,6.250909971000000098e+01,4.464330825000000225e+00
5.510000000000000142e+01,5.963693028000000140e+01,4.324653747000000159e+00
5.529999999999999716e+01,6.663388227000000086e+01,4.446366140000000300e+00
5.550000000000000000e+01,7.279165532000000383e+01,4.851927485000000040e+00
5.570000000000000284e+01,6.537785352000000216e+01,4.659925072000000057e+00
5.589999999999999858e+01,6.533377977000000669e+01,4.579242656999999994e+00
5.610000000000000142e+01,7.359850532000000101e+01,4.795254253000000411e+00
5.629999999999999716e+01,6.691102039000000445e+01,4.636316991000000165e+00
5.650000000000000000e+01,6.415303520000000503e+01,4.540390387000000416e+00
5.670000000000000284e+01,7.110052054000000510e+01,4.743517622999999794e+00
5.689999999999999858e+01,6.340096761000000214e+01,4.425393194999999835e+00
5.710000000000000142e+01,6.894977462999999318e+01,4.741820637000000005e+00
5.729999999999999716e+01,6.773064920999999572e+01,4.558905128000000140e+00
5.750000000000000000e+01,6.700553103000000021e+01,4.626754015999999581e+00
5.770000000000000284e+01,6.520565118000000382e+01,4.554078868999999585e+00
5.789999999999999858e+01,7.281879277000000172e+01,4.883529021000000192e+00
5.810000000000000142e+01,6.621575418000000468e+01,4.547654788000000003e+00
5.829999999999999716e+01,6.670330438999999956e+01,4.666380674000000006e+00
5.850000000000000000e+01,7.252985280000000046e+01,4.761311734000000406e+00
5.870000000000000284e+01,7.210062773999999308e+01,4.861318616000000148e+00
5.889999999999999858e+01,6.517438527000000192e+01,4.536368121999999836e+00
5.910000000000000142e+01,6.340164852000000195e+01,4.485614057000000265e+00
5.929999999999999716e+01,7.027305483000000663e+01,4.738294779000000290e+00
5.950000000000000000e+01,6.917571429000000194e+01,4.697599381999999935e+00
5.970000000000000284e+01,6.802822774000000550e+01,4.644228950999999661e+00
5.989999999999999858e+01,7.568133622999999943e+01,4.938807287000000379e+00
6.010000000000000142e+01,7.323988988000000688e+01,4.812934654000000201e+00
6.029999999999999716e+01,6.274114026000000166e+01,4.376017528000000212e+00
6.050000000000000000e+01,6.748061420999999882e+01,4.604003064999999673e+00
6.070000000000000284e+01,6.571731714000000579e+01,4.548628674999999788e+00
6.089999999999999858e+01,6.912985924999999554e+01,4.739930207999999645e+00
6.110000000000000142e+01,6.744898781000000554e+01,4.553675768999999818e+00
6.129999999999999716e+01,5.963533383000000043e+01,4.163235505000000281e+00
6.150000000000000000e+01,6.469095454000000700e+01,4.499455593000000420e+00
6.170000000000000284e+01,7.262271570000000054e+01,4.796431886999999783e+00
6.189999999999999858e+01,7.565422768000000531e+01,5.007841315000000293e+00
6.210000000000000142e+01,6.558030155999999522e+01,4.510665176999999915e+00
6.229999999999999716e+01,6.120599632999999784e+01,4.353619493000000062e+00
6.250000000000000000e+01,5.974505082999999672e+01,4.311352182000000255e+00
6.270000000000000284e+01,5.859214664999999655e+01,4.268592184000000067e+00
6.289999999999999858e+01,6.204345143999999834e+01,4.404314079999999798e+00
6.310000000000000142e+01,7.065013543000000595e+01,4.728705362000000356e+00
6.329999999999999716e+01,7.337548708999999292e+01,4.901866213999999999e+00
6.350000000000000000e+01,7.470569045999999958e+01,4.896944417000000271e+00
6.370000000000000284e+01,6.636401282999999296e+01,4.597619448999999747e+00
6.389999999999999858e+01,7.072045353999999406e+01,4.700077314999999700e+00
6.409999999999999432e+01,6.874096416999999803e+01,4.651334612000000313e+00
6.429999999999999716e+01,7.019678462000000252e+01,4.643153125999999631e+00
6.450000000000000000e+01,7.302261658999999838e+01,4.717814203999999734e+00
6.470000000000000284e+01,7.491197311000000525e+01,4.891164932999999770e+00
6.490000000000000568e+01,6.391052072000000095e+01,4.468792227999999866e+00
6.509999999999999432e+01,7.058093592999999544e+01,4.797636111000000092e+00
6.529999999999999716e+01,6.519650228999999797e+01,4.649905304999999878e+00
6.550000000000000000e+01,7.062837491999999884e+01,4.749430289000000194e+00
6.570000000000000284e+01,6.837570696000000225e+01,4.491156679000000373e+00
6.590000000000000568e+01,7.252588762999999972e+01,4.862709526999999810e+00
6.609999999999999432e+01,6.939453224000000375e+01,4.705795634000000227e+00
6.629999999999999716e+01,6.934343350000000328e+01,4.641095571000000142e+00
6.650000000000000000e+01,7.737559826999999757e+01,4.905620254999999652e+00
6.670000000000000284e+01,6.596738120000000549e+01,4.547679416000000252e+00
6.690000000000000568e+01,7.700256923999999970e+01,4.865582863000000202e+00
6.709999999999999432e+01,6.506125849999999389e+01,4.561137470000000249e+00
6.729999999999999716e+01,7.206726159000000109e+01,4.736110615000000301e+00
6.750000000000000000e+01,7.140165878000000532e+01,4.674837088000000307e+00
6.770000000000000284e+01,6.808949902999999892e+01,4.636714998000000421e+00
6.790000000000000568e+01,7.013898509999999931e+01,4.812769867000000090e+00
6.809999999999999432e+01,6.402129030999999770e+01,4.501057702999999854e+00
6.829999999999999716e+01,8.204573766999999407e+01,5.164225959000000366e+00
6.850000000000000000e+01,7.402742456000000004e+01,4.904450621999999704e+00
6.870000000000000284e+01,7.680049762999999530e+01,4.853611661000000410e+00
6.890000000000000568e+01,6.990571196000000498e+01,4.738922264000000162e+00
6.909999999999999432e+01,7.104313141000000087e+01,4.874249993000000281e+00
6.929999999999999716e+01,6.477041038999999500e+01,4.588837523999999668e+00
6.950000000000000000e+01,7.054304428000000371e+01,4.702988685000000224e+00
6.970000000000000284e+01,8.225054185000000473e+01,5.101483008999999846e+00
6.990000000000000568e+01,7.587278082999999640e+01,4.940611862999999992e+00
7.009999999999999432e+01,6.832923821999999348e+01,4.733773865999999941e+00
7.029999999999999716e+01,7.320756260999999654e+01,4.874738168999999566e+00
7.050000000000000000e+01,7.695616348999999445e+01,4.908040689999999984e+00
7.070000000000000284e+01,7.497457052999999405e+01,4.968584486000000133e+00
7.090000000000000568e+01,7.654837584999999933e+01,4.932013158000000175e+00
7.109999999999999432e+01,7.555636235000000056e+01,4.848882928000000092e+00
7.129999999999999716e+01,8.248558343999999920e+01,5.113315091999999673e+00
7.150000000000000000e+01,7.176674714000000677e+01,4.875355445000000287e+00
7.170000000000000284e+01,7.107667533999999421e+01,4.662483756000000312e+00
7.190000000000000568e+01,7.852548434000000555e+01,5.079779700999999648e+00
7.209999999999999432e+01,6.360173521000000108e+01,4.408546932000000140e+00
7.229999999999999716e+01,7.805102397000000281e+01,5.090223049999999638e+00
7.250000000000000000e+01,7.461829462000000035e+01,4.909518315999999771e+00
7.270000000000000284e+01,8.058432206999999892e+01,5.065517630999999632e+00
7.290000000000000568e+01,7.736773782999999582e+01,4.805283915999999600e+00
7.309999999999999432e+01,1.017370681999999960e+02,5.596430619000000384e+00
7.329999999999999716e+01,1.096096708999999976e+02,5.903535213999999698e+00
7.350000000000000000e+01,1.423861834999999871e+02,6.724129439999999569e+00
7.370000000000000284e+01,1.606561844000000008e+02,7.177544755999999637e+00
7.390000000000000568e+01,1.571132909000000097e+02,7.178021146999999935e+00
7.409999999999999432e+01,1.380172700999999904e+02,6.626901581000000263e+00
7.429999999999999716e+01,1.189349292999999932e+02,6.267512284999999572e+00
7.450000000000000000e+01,1.039243201999999968e+02,5.711443734999999577e+00
7.470000000000000284e+01,8.837872393000000670e+01,5.257319341999999729e+00
7.490000000000000568e+01,7.627756881999999905e+01,4.882325952000000413e+00
7.509999999999999432e+01,8.075663301000000160e+01,4.985170075000000089e+00
7.529999999999999716e+01,7.874831924999999444e+01,5.062699001999999560e+00
7.550000000000000000e+01,7.116925614999999539e+01,4.725777535999999834e+00
7.570000000000000284e+01,7.292448455999999624e+01,4.781229172999999832e+00
7.590000000000000568e+01,7.823973393999999359e+01,4.997236164000000258e+00
7.609999999999999432e+01,7.820487581000000432e+01,4.996599434000000173e+00
7.629999999999999716e+01,7.941222055999999441e+01,5.098272255000000364e+00
7.650000000000000000e+01,7.491353304999999807e+01,4.825959487999999631e+00
7.670000000000000284e+01,7.719593722000000469e+01,4.982720537999999699e+00
7.690000000000000568e+01,8.288548745999999312e+01,5.207298097999999875e+00
7.709999999999999432e+01,7.390735171999999409e+01,4.845636690000000080e+00
7.729999999999999716e+01,7.303259004999999604e+01,4.759520883999999619e+00
7.750000000000000000e+01,7.195932677000000410e+01,4.850982837000000103e+00
7.770000000000000284e+01,8.176944032999999479e+01,5.030238160999999764e+00
7.790000000000000568e+01,7.270981682000000035e+01,4.734240316000000171e+00
7.809999999999999432e+01,7.633156685999999524e+01,4.936025300999999921e+00
7.829999999999999716e+01,8.662114880000000028e+01,5.279855262999999965e+00
7.850000000000000000e+01,7.656362848999999926e+01,4.990836632999999800e+00
7.870000000000000284e+01,8.387821307999999476e+01,5.169888097000000293e+00
7.890000000000000568e+01,7.396881428000000369e+01,4.797658900000000060e+00
7.909999999999999432e+01,7.264875170000000537e+01,4.790042986999999641e+00
7.929999999999999716e+01,8.186906935000000374e+01,5.068477044999999848e+00
7.950000000000000000e+01,8.066544016000000283e+01,5.110115273999999985e+00
7.970000000000000284e+01,8.058321223000000089e+01,5.134953362000000077e+00
7.990000000000000568e+01,7.354669714999999997e+01,4.747663476999999688e+00
8.009999999999999432e+01,7.868330195999999432e+01,4.882412011999999635e+00
8.029999999999999716e+01,8.203498172000000466e+01,5.129868013000000282e+00
8.050000000000000000e+01,8.525798322999999357e+01,5.105528595000000003e+00
8.070000000000000284e+01,8.748561426999999924e+01,5.277503736999999973e+00
8.090000000000000568e+01,8.967986797000000365e+01,5.342816318999999758e+00
8.109999999999999432e+01,7.238835731000000351e+01,4.755512885999999995e+00
8.129999999999999716e+01,9.048336036000000604e+01,5.303138756000000065e+00
8.150000000000000000e+01,8.282369352000000617e+01,5.177885615000000108e+00
8.170000000000000284e+01,7.999476120999999296e+01,4.998769663000000030e+00
8.190000000000000568e+01,7.294817290999999670e+01,4.763484039999999808e+00
8.209999999999999432e+01,8.218569358999999963e+01,5.116074975000000080e+00
8.229999999999999716e+01,7.251796165000000371e+01,4.785438687000000080e+00
8.250000000000000000e+01,8.209912258999999324e+01,5.102554005000000004e+00
8.270000000000000284e+01,7.792576794000000007e+01,5.003605989000000420e+00
8.290000000000000568e+01,8.783850354000000493e+01,5.354576422000000058e+00
8.309999999999999432e+01,8.889293347999999639e+01,5.407430236999999806e+00
8.329999999999999716e+01,7.734655051000000014e+01,5.010027406999999933e+00
8.350000000000000000e+01,7.449528845000000388e+01,4.705561117000000237e+00
8.370000000000000284e+01,6.912253920000000562e+01,4.660427035999999745e+00
8.390000000000000568e+01,8.557194250000000579e+01,5.298606320000000203e+00
8.409999999999999432e+01,7.635396876999999449e+01,4.908555796999999998e+00
8.429999999999999716e+01,8.045806822999999497e+01,5.017921226000000345e+00
8.450000000000000000e+01,7.351544948999999463e+01,4.767691053000000068e+00
8.470000000000000284e+01,7.444405552000000625e+01,4.781298772000000419e+00
8.490000000000000568e+01,8.514949169999999867e+01,5.210676302000000426e+00
8.509999999999999432e+01,7.920882960000000139e+01,5.143652970999999852e+00
8.529999999999999716e+01,7.719841714999999738e+01,4.957984853000000136e+00
8.550000000000000000e+01,7.750022986999999830e+01,5.009995413999999592e+00
8.570000000000000284e+01,8.178228199000000131e+01,5.118667746999999935e+00
8.590000000000000568e+01,7.560023732999999879e+01,4.803048569000000434e+00
8.609999999999999432e+01,7.037701506000000506e+01,4.642401987000000396e+00
8.629999999999999716e+01,8.450347250999999460e+01,5.118994770999999666e+00
8.650000000000000000e+01,7.647087204999999699e+01,4.940295596000000344e+00
8.670000000000000284e+01,8.083441872999999589e+01,5.138493423999999976e+00
8.690000000000000568e+01,7.072991172000000404e+01,4.741799502000000111e+00
8.709999999999999432e+01,7.995984407999999632e+01,5.056877622000000017e+00
8.729999999999999716e+01,7.603853709000000549e+01,4.919558323999999594e+00
8.750000000000000000e+01,8.534461161999999490e+01,5.357218499000000023e+00
8.770000000000000284e+01,7.609393823999999995e+01,5.018135015000000365e+00
8.790000000000000568e+01,8.324534891000000414e+01,5.156986875000000303e+00
8.809999999999999432e+01,8.419086570999999708e+01,5.355146447000000087e+00
8.829999999999999716e+01,9.278477404000000206e+01,5.669776331999999641e+00
8.850000000000000000e+01,1.176611075000000000e+02,6.797392127000000173e+00
8.870000000000000284e+01,1.257974063999999998e+02,7.089823123999999588e+00
8.890000000000000568e+01,1.465311801999999943e+02,7.925641977999999810e+00
8.909999999999999432e+01,1.730199971000000119e+02,8.807739736000000264e+00
8.929999999999999716e+01,1.866001754000000119e+02,9.277592724999999874e+00
8.950000000000000000e+01,1.984715214999999944e+02,9.586168062000000489e+00
8.970000000000000284e+01,1.769593839000000060e+02,8.850211306000000278e+00
8.990000000000000568e+01,1.840574862999999937e+02,9.026159370000000237e+00
9.009999999999999432e+01,1.556712790999999925e+02,8.143618026000000398e+00
9.029999999999999716e+01,1.214766539999999964e+02,6.796633706999999802e+00
9.050000000000000000e+01,1.026716957000000008e+02,6.252957553999999973e+00
9.070000000000000284e+01,8.310850947999999505e+01,5.288371517999999938e+00
9.090000000000000568e+01,7.680674645999999939e+01,5.188423367999999591e+00
9.109999999999999432e+01,7.080800954999999419e+01,4.926607761999999724e+00
9.129999999999999716e+01,7.639995849999999677e+01,4.855729024000000393e+00
9.150000000000000000e+01,8.122584793999999420e+01,5.147260005999999777e+00
9.170000000000000284e+01,8.630678152999999497e+01,5.263458625000000168e+00
9.190000000000000568e+01,8.162935113999999714e+01,5.068169662999999936e+00
9.209999999999999432e+01,7.746895809999999472e+01,4.958228459999999949e+00
9.229999999999999716e+01,8.204986232999999629e+01,5.019558059999999600e+00
9.250000000000000000e+01,8.040674110000000496e+01,5.095226399000000406e+00
9.270000000000000284e+01,8.563727326000000062e+01,5.339972116000000213e+00
9.290000000000000568e+01,8.026631338999999343e+01,5.028205282000000054e+00
9.309999999999999432e+01,8.448074223999999788e+01,5.130949342000000080e+00
9.329999999999999716e+01,7.867495723999999768e+01,4.984625673000000035e+00
9.350000000000000000e+01,8.435425809999999558e+01,5.056610932999999974e+00
9.370000000000000284e+01,8.638057947999999442e+01,4.972183389999999648e+00
9.390000000000000568e+01,9.832790312000000199e+01,5.345622958999999952e+00
9.409999999999999432e+01,1.043786434999999955e+02,5.552666022000000368e+00
9.429999999999999716e+01,1.095478956000000039e+02,5.501979353000000295e+00
9.450000000000000000e+01,1.176988666999999964e+02,5.768462758000000079e+00
9.470000000000000284e+01,1.172057820999999933e+02,5.624820935999999882e+00
9.490000000000000568e+01,1.064919143999999989e+02,5.395487400000000378e+00
9.509999999999999432e+01,1.055050420999999972e+02,5.438833637000000110e+00
9.529999999999999716e+01,9.491641869999999415e+01,5.038400261999999685e+00
9.550000000000000000e+01,9.293138251999999966e+01,5.308314286999999965e+00
9.570000000000000284e+01,8.779020302000000697e+01,5.205495698000000004e+00
9.590000000000000568e+01,8.622103715999999451e+01,5.102121887000000022e+00
9.609999999999999432e+01,8.123911329000000592e+01,5.051280462000000249e+00
9.629999999999999716e+01,7.939632116999999312e+01,5.017775294999999858e+00
9.650000000000000000e+01,8.526971924000000058e+01,5.249022425999999797e+00
9.670000000000000284e+01,7.298825852000000225e+01,4.805176828999999650e+00
9.690000000000000568e+01,8.191506187999999611e+01,5.067092323999999870e+00
9.709999999999999432e+01,8.347875865000000317e+01,5.213402123999999915e+00
9.729999999999999716e+01,7.784327319999999872e+01,4.934820311000000181e+00
9.750000000000000000e+01,8.205094237999999507e+01,5.020902892999999700e+00
9.770000000000000284e+01,7.338531408000000056e+01,4.800676819999999623e+00
9.790000000000000568e+01,7.690503642999999556e+01,4.762053215999999978e+00
9.809999999999999432e+01,7.677797574999999597e+01,4.961572967999999584e+00
9.829999999999999716e+01,7.852077982999999506e+01,4.943590823000000078e+00
9.850000000000000000e+01,7.699098893999999405e+01,4.923859246000000134e+00
9.870000000000000284e+01,7.619037563000000546e+01,4.923743489999999667e+00
9.890000000000000568e+01,8.368971236000000147e+01,5.115623593999999663e+00
9.909999999999999432e+01,8.001926579999999944e+01,5.066124866000000004e+00
9.929999999999999716e+01,8.019868820000000653e+01,5.101852705999999849e+00
9.950000000000000000e+01,7.878245121000000495e+01,5.028280589000000411e+00
9.970000000000000284e+01,8.191727104000000281e+01,5.122021993999999800e+00
9.990000000000000568e+01,8.881212367999999913e+01,5.401915562000000115e+00
