x_axis,Intensity,Error
1.009999999999999964e+01,1.610493828999999932e+00,1.267269218999999891e+00
1.030000000000000071e+01,5.042476871999999943e+00,2.648270209000000097e+00
1.050000000000000000e+01,3.900356250000000191e+00,3.443865037000000129e+00
1.069999999999999929e+01,4.041227532999999816e+00,2.758755314000000070e+00
1.090000000000000036e+01,2.637480157999999797e+00,2.034187149000000083e+00
1.109999999999999964e+01,6.441801737999999666e+00,3.548070146000000147e+00
1.130000000000000071e+01,2.353510197999999942e+00,1.237445569999999995e+00
1.150000000000000000e+01,1.168309687999999902e+00,3.613305478000000126e-01
1.169999999999999929e+01,9.650069800999999670e-01,4.683079447999999867e-01
1.190000000000000036e+01,3.702615815000000143e+00,3.014262487999999962e+00
1.209999999999999964e+01,5.849256089999999908e+00,3.775219678000000023e+00
1.230000000000000071e+01,2.444477260999999846e+00,1.986596645999999966e+00
1.250000000000000000e+01,5.283707147999999743e-01,1.454464936000000042e-01
1.269999999999999929e+01,4.364029953000000184e+00,2.597047106999999855e+00
1.290000000000000036e+01,1.616616937999999948e+00,1.006736534000000072e+00
1.309999999999999964e+01,3.578676176000000098e+00,2.043929933999999893e+00
1.330000000000000071e+01,1.029552261000000080e+01,6.227639607000000410e+00
1.350000000000000000e+01,4.667877216999999912e-01,1.052951389999999959e-01
1.369999999999999929e+01,2.446129426999999801e+00,1.769206934999999925e+00
1.390000000000000036e+01,6.630103443000000318e+00,3.377587000000000117e+00
1.409999999999999964e+01,2.344764260999999905e+00,1.700139784999999959e+00
1.430000000000000071e+01,5.458058368999999743e+00,2.939322611999999779e+00
1.450000000000000000e+01,9.657705483000000868e+00,5.228333811999999803e+00
1.469999999999999929e+01,8.993042258000000233e-01,4.985767278000000080e-01
1.490000000000000036e+01,1.936571690000000068e+00,9.035540752999999814e-01
1.509999999999999964e+01,5.049830505000000080e+00,3.130470954000000194e+00
1.530000000000000071e+01,4.833004028999999591e+00,3.395133688000000038e+00
1.550000000000000000e+01,3.458665192999999860e+00,2.010193521999999788e+00
1.569999999999999929e+01,2.808454087999999960e+00,1.256449015000000058e+00
1.590000000000000036e+01,6.580489079000000352e-01,1.404328675000000026e-01
1.610000000000000142e+01,2.082237570000000204e+00,1.542882937999999982e+00
1.630000000000000071e+01,9.873215249000000249e-01,3.063890792999999779e-01
1.650000000000000000e+01,5.513523850999999532e-01,1.084403730000000066e-01
1.669999999999999929e+01,9.459429159000000809e+00,5.351316717999999639e+00
1.689999999999999858e+01,7.881802603999999990e-01,2.694073382000000128e-01
1.710000000000000142e+01,4.014785985999999696e+00,2.042486069000000182e+00
1.730000000000000071e+01,4.629878255000000387e+00,2.943688434999999881e+00
1.750000000000000000e+01,2.855286764999999782e+00,1.627309973000000021e+00
1.769999999999999929e+01,1.252264169000000038e+00,3.463218348000000057e-01
1.789999999999999858e+01,1.378094766000000027e+00,7.298738184999999934e-01
1.810000000000000142e+01,2.777980884000000206e+00,1.966177252000000042e+00
1.830000000000000071e+01,2.745578237000000144e+00,2.090559288000000127e+00
1.850000000000000000e+01,5.506066587000000290e-01,1.136910802999999970e-01
1.869999999999999929e+01,6.774360944999999745e-01,1.268694545999999868e-01
1.889999999999999858e+01,7.309984972999999941e-01,1.337607598999999980e-01
1.910000000000000142e+01,4.068305887000000176e+00,2.932322361000000210e+00
1.930000000000000071e+01,2.606915075999999942e+00,1.326555083999999995e+00
1.950000000000000000e+01,6.000203607999999633e+00,3.312386877999999868e+00
1.969999999999999929e+01,3.116346158999999894e+00,1.518105258000000068e+00
1.989999999999999858e+01,3.386516234000000125e+00,1.928307819000000034e+00
2.010000000000000142e+01,5.199501735000000124e+00,2.523896753999999909e+00
2.030000000000000071e+01,8.048614094999999580e-01,3.928315941000000144e-01
2.050000000000000000e+01,7.712319726999999681e+00,4.239232655000000349e+00
2.069999999999999929e+01,3.964686577000000156e+00,2.673648250999999920e+00
2.089999999999999858e+01,6.924731284999999792e-01,1.269448469999999995e-01
2.110000000000000142e+01,3.946017915000000098e+00,3.041511061000000016e+00
2.130000000000000071e+01,9.334240661999999134e+00,5.264939505000000075e+00
2.150000000000000000e+01,3.457685055999999868e+00,1.433241744999999900e+00
2.169999999999999929e+01,1.161834590000000000e+00,4.751752505999999876e-01
2.189999999999999858e+01,8.527932508000000134e-01,1.579886581999999928e-01
2.210000000000000142e+01,3.922690784999999902e+00,3.006728432000000062e+00
2.230000000000000071e+01,1.014283424000000045e+00,2.441634232999999876e-01
2.250000000000000000e+01,5.207386669999999995e+00,3.496356943999999967e+00
2.269999999999999929e+01,2.034997311999999781e+00,9.532485960000000036e-01
2.289999999999999858e+01,9.243421548000000598e+00,6.777744665000000168e+00
2.310000000000000142e+01,6.580729736000000551e-01,1.218236426999999983e-01
2.330000000000000071e+01,7.624777179999999710e+00,7.017655878000000236e+00
2.350000000000000000e+01,9.927127849000000337e-01,1.525378371999999982e-01
2.369999999999999929e+01,4.411562961999999644e+00,2.017221027000000166e+00
2.389999999999999858e+01,3.573986114999999852e+00,1.965760130999999911e+00
2.410000000000000142e+01,4.713106952000000405e+00,2.959248545999999980e+00
2.430000000000000071e+01,1.707879828000000044e+00,6.258284159000000457e-01
2.450000000000000000e+01,1.269604313999999956e+00,4.151624412000000097e-01
2.469999999999999929e+01,1.948476314999999959e+00,9.199937102999999894e-01
2.489999999999999858e+01,2.273924683000000169e+00,1.520417337999999896e+00
2.510000000000000142e+01,3.072455033999999863e+00,2.157077001999999855e+00
2.530000000000000071e+01,3.810933476000000208e+00,2.138890366000000043e+00
2.550000000000000000e+01,3.989479620000000004e+00,1.981751722000000049e+00
2.569999999999999929e+01,1.055647079999999960e+00,2.693058624999999928e-01
2.589999999999999858e+01,3.779642103000000031e+00,2.612162341999999970e+00
2.610000000000000142e+01,4.428863905000000045e+00,2.176436738000000037e+00
2.630000000000000071e+01,8.788396184000000222e-01,1.509745288999999879e-01
2.650000000000000000e+01,1.501441350999999980e+00,7.131050809000000212e-01
2.669999999999999929e+01,1.818443801999999998e+00,9.015113758999999671e-01
2.689999999999999858e+01,4.557987465000000071e+00,2.240646926999999788e+00
2.710000000000000142e+01,8.663133711999999598e-01,1.391131194999999932e-01
2.730000000000000071e+01,2.710896744999999886e+00,1.850847474999999909e+00
2.750000000000000000e+01,1.168887258000000040e+00,4.050895374999999854e-01
2.769999999999999929e+01,3.558713286000000142e+00,2.257234610999999891e+00
2.789999999999999858e+01,2.648278153000000135e+00,1.586858996999999993e+00
2.810000000000000142e+01,1.404961770000000110e+00,5.877707858999999813e-01
2.830000000000000071e+01,8.311714378999999653e+00,4.601620169000000260e+00
2.850000000000000000e+01,5.089381069999999951e+00,2.983820485999999939e+00
2.869999999999999929e+01,1.396050352000000050e+00,6.183017136999999774e-01
2.889999999999999858e+01,4.217299228999999983e+00,2.450935744000000138e+00
2.910000000000000142e+01,8.630681382999999540e-01,1.434681492000000058e-01
2.930000000000000071e+01,2.204031169999999928e+00,1.558972427999999910e+00
2.950000000000000000e+01,9.241376964999999943e-01,1.446085228000000000e-01
2.969999999999999929e+01,8.124803677999999918e-01,1.376364549000000104e-01
2.989999999999999858e+01,6.146828135999999887e+00,3.203337395999999782e+00
3.010000000000000142e+01,2.775420073999999904e+00,1.352426244000000111e+00
3.030000000000000071e+01,5.402901072999999776e+00,3.528277151999999806e+00
3.050000000000000000e+01,4.111125051000000141e+00,3.300595620999999813e+00
3.069999999999999929e+01,8.926252995000000245e-01,1.543451211999999906e-01
3.089999999999999858e+01,1.451318842000000053e+00,4.219498280999999795e-01
3.110000000000000142e+01,1.832935763000000051e+00,1.029341937000000096e+00
3.130000000000000071e+01,1.137810846000000042e+00,3.454358958000000035e-01
3.150000000000000000e+01,2.642074834999999844e+00,1.822273765000000045e+00
3.169999999999999929e+01,2.315458714000000029e+00,1.434883659999999894e+00
3.189999999999999858e+01,2.167552807999999942e+00,1.040993658000000099e+00
3.210000000000000142e+01,4.535927507000000247e+00,2.664638665000000017e+00
3.229999999999999716e+01,1.320038652000000035e+00,3.597297245000000143e-01
3.250000000000000000e+01,1.055053494000000036e+00,1.627026943000000059e-01
3.270000000000000284e+01,6.216194799000000160e+00,3.114632950999999927e+00
3.289999999999999858e+01,5.031836622000000148e+00,2.545319907000000104e+00
3.310000000000000142e+01,1.868311784999999947e+00,7.889698358000000189e-01
3.329999999999999716e+01,1.188767514999999975e+01,8.751429565000000466e+00
3.350000000000000000e+01,2.387986578000000026e+00,1.431415477000000047e+00
3.370000000000000284e+01,4.614824507999999881e+00,3.245480476000000003e+00
3.389999999999999858e+01,4.796980576000000163e+00,2.977488870000000176e+00
3.410000000000000142e+01,2.064579610000000010e+00,9.611717789999999484e-01
3.429999999999999716e+01,2.858353006000000196e+00,1.874554614000000008e+00
3.450000000000000000e+01,1.491760544999999993e+00,3.844831906000000243e-01
3.470000000000000284e+01,6.597611000999999753e+00,3.628948786000000037e+00
3.489999999999999858e+01,6.343904992999999770e+00,5.194541408000000082e+00
3.510000000000000142e+01,9.753581769000000401e-01,1.533056158999999974e-01
3.529999999999999716e+01,2.417000183999999940e+00,1.147945114000000100e+00
3.550000000000000000e+01,1.082855932999999915e+01,5.957932471000000341e+00
3.570000000000000284e+01,7.291264697999999544e-01,1.778607463999999916e-01
3.589999999999999858e+01,2.644537369000000027e+00,1.225690748000000108e+00
3.610000000000000142e+01,8.558588627000000670e+00,6.710017349000000131e+00
3.629999999999999716e+01,3.870038023000000216e+00,2.188503820999999849e+00
3.650000000000000000e+01,2.176469829000000189e+00,8.002300745000000548e-01
3.670000000000000284e+01,1.229856207999999951e+00,2.290377301000000032e-01
3.689999999999999858e+01,1.488956807000000104e+00,6.908452927999999549e-01
3.710000000000000142e+01,5.566718930999999593e+00,2.662495279999999909e+00
3.729999999999999716e+01,3.273153638999999782e+00,1.528919979999999956e+00
3.750000000000000000e+01,2.192827304999999782e+00,1.250004630999999922e+00
3.770000000000000284e+01,8.880982587000000317e-01,1.519877071000000079e-01
3.789999999999999858e+01,3.679332120999999844e+00,2.852587835000000016e+00
3.810000000000000142e+01,3.803002312999999912e+00,1.822113456000000076e+00
3.829999999999999716e+01,3.700577399999999795e+00,2.776214207000000211e+00
3.850000000000000000e+01,1.310470207999999914e+00,3.915638858000000111e-01
3.870000000000000284e+01,2.260659255000000201e+00,1.011412924000000046e+00
3.889999999999999858e+01,1.917024995000000009e+00,7.522498507999999529e-01
3.910000000000000142e+01,1.593274271999999936e+00,7.507582694000000112e-01
3.929999999999999716e+01,1.557487630000000012e+00,5.173016394999999656e-01
3.950000000000000000e+01,5.431216393999999781e+00,2.240910307000000046e+00
3.970000000000000284e+01,7.731063008999999653e+00,2.901176817000000074e+00
3.989999999999999858e+01,7.068536479999999678e+00,2.663825587999999911e+00
4.010000000000000142e+01,1.441026088999999999e+01,4.854917773999999575e+00
4.029999999999999716e+01,1.791552884000000034e+01,5.359837785999999937e+00
4.050000000000000000e+01,2.111494592000000026e+01,5.340150264000000035e+00
4.070000000000000284e+01,4.333593158000000045e+01,8.725414131000000850e+00
4.089999999999999858e+01,5.241296572000000253e+01,8.981173685999999989e+00
4.110000000000000142e+01,4.883237925000000246e+01,9.102198140000000492e+00
4.129999999999999716e+01,9.803676866000000700e+01,1.284020821000000012e+01
4.150000000000000000e+01,9.166620978999999636e+01,1.241280330999999926e+01
4.170000000000000284e+01,1.370601071000000104e+02,1.560393436999999928e+01
4.189999999999999858e+01,1.284589819999999918e+02,1.491206644999999931e+01
4.210000000000000142e+01,1.557339345999999978e+02,1.639536568999999844e+01
4.229999999999999716e+01,1.638275322000000074e+02,1.678015960000000106e+01
4.250000000000000000e+01,2.228588659000000121e+02,1.970896387000000161e+01
4.270000000000000284e+01,2.434697521999999879e+02,2.085920568999999958e+01
4.289999999999999858e+01,2.549556313999999873e+02,2.097029567999999955e+01
4.310000000000000142e+01,2.294225815000000068e+02,1.998547780000000174e+01
4.329999999999999716e+01,2.739894072000000165e+02,2.200560412000000099e+01
4.350000000000000000e+01,2.226728830000000130e+02,1.983393235999999860e+01
4.370000000000000284e+01,2.173335508000000118e+02,1.922833367999999865e+01
4.389999999999999858e+01,1.784765162999999859e+02,1.758721359999999834e+01
4.410000000000000142e+01,1.838611908000000028e+02,1.779506124999999983e+01
4.429999999999999716e+01,1.740757869999999912e+02,1.750169294999999892e+01
4.450000000000000000e+01,1.176098235999999986e+02,1.419621622999999921e+01
4.470000000000000284e+01,1.141272878000000048e+02,1.456527258999999930e+01
4.489999999999999858e+01,8.784304563000000599e+01,1.241179626999999996e+01
4.510000000000000142e+01,7.690550853999999958e+01,1.162928572000000038e+01
4.529999999999999716e+01,4.533172228000000104e+01,8.813403363000000823e+00
4.550000000000000000e+01,4.027676532000000265e+01,8.068958053999999436e+00
4.570000000000000284e+01,2.730165137999999914e+01,6.791640667000000242e+00
4.589999999999999858e+01,2.751490404999999839e+01,7.556938687999999793e+00
4.610000000000000142e+01,1.646707999999999927e+01,5.691353106000000217e+00
4.629999999999999716e+01,1.324688571000000081e+01,5.339379992999999658e+00
4.650000000000000000e+01,8.146093661000000097e+00,3.280067966999999918e+00
4.670000000000000284e+01,2.170924241000000166e+01,6.297256022000000009e+00
4.689999999999999858e+01,8.671337578999999351e+00,2.668830065999999945e+00
4.710000000000000142e+01,1.062353848999999961e+01,3.088762260000000204e+00
4.729999999999999716e+01,2.312831986999999856e+01,5.677055194000000249e+00
4.750000000000000000e+01,2.599027846999999980e+01,5.346461816999999783e+00
4.770000000000000284e+01,3.480463894999999752e+01,6.498457596999999808e+00
4.789999999999999858e+01,2.880061124999999933e+01,5.334253255000000138e+00
4.810000000000000142e+01,3.669744529999999827e+01,6.010468172999999581e+00
4.829999999999999716e+01,4.349310563000000229e+01,6.896948504000000035e+00
4.850000000000000000e+01,7.646819318999999382e+01,9.074998379000000170e+00
4.870000000000000284e+01,6.681429235999999605e+01,8.596134845999999996e+00
4.889999999999999858e+01,8.883150215999999944e+01,1.009645435999999918e+01
4.910000000000000142e+01,8.194906763999999555e+01,9.225076633000000470e+00
4.929999999999999716e+01,1.030561041999999929e+02,1.065210197000000036e+01
4.950000000000000000e+01,1.303888030999999899e+02,1.222719859000000042e+01
4.970000000000000284e+01,1.245000720999999970e+02,1.106439385000000009e+01
4.989999999999999858e+01,1.292545063000000027e+02,1.184386581000000049e+01
5.010000000000000142e+01,1.428483105999999907e+02,1.281898733999999962e+01
5.029999999999999716e+01,1.274305326000000065e+02,1.146922915000000032e+01
5.050000000000000000e+01,1.238300481999999931e+02,1.114878595999999966e+01
5.070000000000000284e+01,1.243044862999999935e+02,1.111872332999999990e+01
5.089999999999999858e+01,1.091177490999999975e+02,1.065434244000000064e+01
5.110000000000000142e+01,1.080357637999999980e+02,1.067407554000000047e+01
5.129999999999999716e+01,1.140557081000000039e+02,1.184203967999999918e+01
5.150000000000000000e+01,1.035940934000000055e+02,1.094785826999999934e+01
5.170000000000000284e+01,7.218528732999999420e+01,8.662612866999999994e+00
5.189999999999999858e+01,7.528679008999999667e+01,9.225610008000000306e+00
5.210000000000000142e+01,6.170927657000000011e+01,8.109073125000000104e+00
5.229999999999999716e+01,5.024949478999999997e+01,7.814938867999999594e+00
5.250000000000000000e+01,3.347914126999999951e+01,6.198423250000000273e+00
5.270000000000000284e+01,3.091003625999999826e+01,5.502805480000000138e+00
5.289999999999999858e+01,2.544498717000000099e+01,4.970654750999999649e+00
5.310000000000000142e+01,2.083636723000000046e+01,4.816907117000000405e+00
5.329999999999999716e+01,1.538300034000000061e+01,4.444680491999999816e+00
5.350000000000000000e+01,1.747877928999999853e+01,4.264966976000000187e+00
5.370000000000000284e+01,8.929480754000000076e+00,3.861185149999999844e+00
5.389999999999999858e+01,3.836461299999999852e+00,1.610423122999999901e+00
5.410000000000000142e+01,1.009915050999999941e+01,4.172128745000000194e+00
5.429999999999999716e+01,2.730636840999999926e+00,1.504694801000000082e+00
5.450000000000000000e+01,2.895980133000000123e+00,1.070810977999999913e+00
5.470000000000000284e+01,4.929008765999999930e+00,2.519584325999999930e+00
5.489999999999999858e+01,4.840617724000000344e+00,3.473808074999999995e+00
5.510000000000000142e+01,3.267564376000000159e+00,1.821291117999999987e+00
5.529999999999999716e+01,5.123240473000000073e+00,3.618985246999999905e+00
5.550000000000000000e+01,1.634800778000000010e+00,3.829267152999999979e-01
5.570000000000000284e+01,1.721473449000000100e+00,3.943170740999999979e-01
5.589999999999999858e+01,4.468168651000000047e+00,1.841403879000000021e+00
5.610000000000000142e+01,2.037515900999999907e+00,7.556854641000000372e-01
5.629999999999999716e+01,3.468345729999999794e+00,1.344181333000000089e+00
5.650000000000000000e+01,2.198027816999999828e+00,7.042878361000000087e-01
5.670000000000000284e+01,1.440676419999999958e+00,4.211610570000000053e-01
5.689999999999999858e+01,4.126451553999999966e+00,1.698917551000000081e+00
5.710000000000000142e+01,1.569019229000000015e+00,3.911359837999999756e-01
5.729999999999999716e+01,6.271989600999999581e+00,3.485880804999999860e+00
5.750000000000000000e+01,1.406999670000000036e+00,1.818634772000000122e-01
5.770000000000000284e+01,3.745415685000000217e+00,2.308915529000000078e+00
5.789999999999999858e+01,4.456436244999999907e+00,2.903917977999999955e+00
5.810000000000000142e+01,1.742791774999999932e+00,4.816841067000000032e-01
5.829999999999999716e+01,1.211782490999999906e+00,1.728977026000000083e-01
5.850000000000000000e+01,6.987386309999999767e+00,3.436822262000000183e+00
5.870000000000000284e+01,1.226521911000000076e+00,1.793579542000000027e-01
5.889999999999999858e+01,1.449258745999999931e+00,3.781661244000000255e-01
5.910000000000000142e+01,1.919744153999999980e+00,6.769991590999999698e-01
5.929999999999999716e+01,1.978162484000000054e+00,7.664618535999999649e-01
5.950000000000000000e+01,2.234998795000000094e+00,8.829691561000000410e-01
5.970000000000000284e+01,4.757404411999999638e+00,2.203343199999999946e+00
5.989999999999999858e+01,4.810633149000000053e+00,2.006117069000000086e+00
6.010000000000000142e+01,1.479603878999999900e+00,1.844791547000000087e-01
6.029999999999999716e+01,3.971631459999999780e+00,1.988752877000000030e+00
6.050000000000000000e+01,5.127369287999999692e+00,2.094047948000000048e+00
6.070000000000000284e+01,2.456670503999999866e+00,8.638420594000000285e-01
6.089999999999999858e+01,4.505501095999999706e+00,2.108795353000000095e+00
6.110000000000000142e+01,5.582430167000000054e+00,3.564201317999999841e+00
6.129999999999999716e+01,3.001680921000000168e+00,1.345833886999999951e+00
6.150000000000000000e+01,3.535410764999999955e+00,1.307951598000000049e+00
6.170000000000000284e+01,5.013141876999999802e+00,2.542500956000000034e+00
6.189999999999999858e+01,2.331282327999999904e+00,1.130299884999999893e+00
6.210000000000000142e+01,4.056192839999999578e+00,2.643562136999999979e+00
6.229999999999999716e+01,4.857053802000000253e+00,3.363429040000000203e+00
6.250000000000000000e+01,7.470195442999999713e+00,5.822506714000000194e+00
6.270000000000000284e+01,1.048704621000000081e+01,6.573535806999999842e+00
6.289999999999999858e+01,1.460883323000000011e+00,3.809665119000000266e-01
6.310000000000000142e+01,3.362831373000000124e+00,2.028250485000000047e+00
6.329999999999999716e+01,1.290334950000000092e+00,1.816242986000000115e-01
6.350000000000000000e+01,1.083336451000000089e+00,2.023645417000000113e-01
6.370000000000000284e+01,1.230291044999999972e+00,1.715631092000000080e-01
6.389999999999999858e+01,3.924439919000000110e+00,1.938294203999999965e+00
6.409999999999999432e+01,2.454339346999999893e+00,9.137064493000000009e-01
6.429999999999999716e+01,1.605906076999999987e+00,2.010727368000000126e-01
6.450000000000000000e+01,1.640405152999999894e+00,2.066905635999999880e-01
6.470000000000000284e+01,1.488531684000000022e+00,1.913405361999999943e-01
6.490000000000000568e+01,9.449560575999999656e+00,6.867690915999999923e+00
6.509999999999999432e+01,6.199408311000000005e+00,4.005726601000000109e+00
6.529999999999999716e+01,1.737192413000000046e+00,5.486698170999999569e-01
6.550000000000000000e+01,1.143864798000000071e+01,6.293066624999999803e+00
6.570000000000000284e+01,1.447096055999999908e+00,1.870623589000000031e-01
6.590000000000000568e+01,1.571221597999999942e+00,2.044135584000000005e-01
6.609999999999999432e+01,4.511104997000000338e+00,2.076952443000000148e+00
6.629999999999999716e+01,1.015450438999999960e+01,4.485298395000000049e+00
6.650000000000000000e+01,4.064189869999999871e+00,2.098966267999999857e+00
6.670000000000000284e+01,2.771015704999999940e+00,8.659068605999999946e-01
6.690000000000000568e+01,4.113662092000000214e+00,2.555639425999999936e+00
6.709999999999999432e+01,4.883604885999999645e+00,2.017320912999999827e+00
6.729999999999999716e+01,9.971320108000000459e+00,4.947758040000000079e+00
6.750000000000000000e+01,6.435849042000000075e+00,2.629270557999999980e+00
6.770000000000000284e+01,7.712889814000000399e+00,3.924886705000000031e+00
6.790000000000000568e+01,1.103219887000000021e+01,5.114607460000000216e+00
6.809999999999999432e+01,5.998136445000000094e+00,3.025289664000000212e+00
6.829999999999999716e+01,1.350458944999999966e+00,1.788326050000000056e-01
6.850000000000000000e+01,1.029357822000000056e+01,4.906179944999999876e+00
6.870000000000000284e+01,1.008852994000000081e+01,3.849804680000000090e+00
6.890000000000000568e+01,1.071675581000000044e+01,3.405880409999999969e+00
6.909999999999999432e+01,1.503687382000000028e+01,5.211474778000000363e+00
6.929999999999999716e+01,2.376736826999999863e+01,6.294269053999999919e+00
6.950000000000000000e+01,1.727487766999999863e+01,4.967612918999999572e+00
6.970000000000000284e+01,1.501314950000000081e+01,4.719911201000000389e+00
6.990000000000000568e+01,3.162319018999999898e+01,7.023083594000000041e+00
7.009999999999999432e+01,2.608320248000000063e+01,5.969345213000000427e+00
7.029999999999999716e+01,2.742895683000000062e+01,7.006928517000000411e+00
7.050000000000000000e+01,2.475995220000000074e+01,6.416805006999999783e+00
7.070000000000000284e+01,3.762508255000000190e+01,7.611941009999999785e+00
7.090000000000000568e+01,5.094550356999999963e+01,8.891710592000000801e+00
7.109999999999999432e+01,6.267974760999999972e+01,1.044234797000000015e+01
7.129999999999999716e+01,5.312041740000000090e+01,8.856764743999999467e+00
7.150000000000000000e+01,5.657475257000000113e+01,9.291670998000000736e+00
7.170000000000000284e+01,6.214646918999999770e+01,9.894259897999999609e+00
7.190000000000000568e+01,7.709971179999999435e+01,1.162774173000000033e+01
7.209999999999999432e+01,5.153597594000000015e+01,8.636889818000000218e+00
7.229999999999999716e+01,6.851917380000000435e+01,1.032847351999999930e+01
7.250000000000000000e+01,6.403892998999999975e+01,9.720757716999999687e+00
7.270000000000000284e+01,8.744999665000000277e+01,1.120848821000000051e+01
7.290000000000000568e+01,1.056963315999999935e+02,1.316324769000000039e+01
7.309999999999999432e+01,1.207983566000000053e+02,1.388522475999999983e+01
7.329999999999999716e+01,8.794900002999999344e+01,1.171402609999999989e+01
7.350000000000000000e+01,1.081450224999999961e+02,1.315430270999999962e+01
7.370000000000000284e+01,9.698526501000000621e+01,1.229649949000000042e+01
7.390000000000000568e+01,9.863774859000000106e+01,1.199206977000000052e+01
7.409999999999999432e+01,9.973428246000000286e+01,1.307837579000000083e+01
7.429999999999999716e+01,1.123904603000000009e+02,1.333003764000000047e+01
7.450000000000000000e+01,1.039758788999999979e+02,1.268729352999999982e+01
7.470000000000000284e+01,8.276582933000000253e+01,1.114954307000000000e+01
7.490000000000000568e+01,8.859258065999999587e+01,1.180717019999999984e+01
7.509999999999999432e+01,1.050993694000000005e+02,1.344280095999999958e+01
7.529999999999999716e+01,8.839047419999999988e+01,1.149486927999999963e+01
7.550000000000000000e+01,6.914683589000000552e+01,1.070208281999999933e+01
7.570000000000000284e+01,6.622466925000000515e+01,9.938650837000000848e+00
7.590000000000000568e+01,5.969345959000000335e+01,9.332019733999999289e+00
7.609999999999999432e+01,6.098213619999999935e+01,9.926483592000000300e+00
7.629999999999999716e+01,6.147369210000000095e+01,1.049085205000000087e+01
7.650000000000000000e+01,6.210579299999999847e+01,9.734862495999999865e+00
7.670000000000000284e+01,4.686748812999999814e+01,8.458926739000000694e+00
7.690000000000000568e+01,4.610191803000000021e+01,8.539444940999999289e+00
7.709999999999999432e+01,2.430366482999999889e+01,5.787902968000000037e+00
7.729999999999999716e+01,3.055509333999999910e+01,7.462571071000000167e+00
7.750000000000000000e+01,3.193039673999999906e+01,6.868205698999999775e+00
7.770000000000000284e+01,1.264054875999999972e+01,3.743456471000000008e+00
7.790000000000000568e+01,2.682013745000000071e+01,6.227107439000000078e+00
7.809999999999999432e+01,2.175538067999999825e+01,6.682473093999999669e+00
7.829999999999999716e+01,6.097325876000000200e+00,2.191901840999999962e+00
7.850000000000000000e+01,2.013744429000000125e+01,5.228346293999999617e+00
7.870000000000000284e+01,1.024406059000000013e+01,4.054437651999999837e+00
7.890000000000000568e+01,7.589935642000000371e+00,3.179421205000000139e+00
7.909999999999999432e+01,1.099030826999999988e+01,3.867745309000000020e+00
7.929999999999999716e+01,9.547042241999999845e+00,4.315142983000000321e+00
7.950000000000000000e+01,7.859541919999999848e+00,4.090787265000000339e+00
7.970000000000000284e+01,3.096597061999999845e+00,9.772101730000000153e-01
7.990000000000000568e+01,5.996727951999999640e+00,3.842385934999999808e+00
8.009999999999999432e+01,6.674916363000000352e+00,3.817143649000000138e+00
8.029999999999999716e+01,1.000785224000000007e+01,4.035353278999999738e+00
8.050000000000000000e+01,1.032727809000000008e+01,4.659273065999999908e+00
8.070000000000000284e+01,4.789569863999999733e+00,2.719683897999999989e+00
8.090000000000000568e+01,1.941418885000000039e+00,6.594646210000000286e-01
8.109999999999999432e+01,6.156375330999999562e+00,2.666750967000000028e+00
8.129999999999999716e+01,4.298283857000000374e+00,1.987877614999999931e+00
8.150000000000000000e+01,1.683697277999999908e+00,3.825186025000000267e-01
8.170000000000000284e+01,8.136729788000000241e+00,3.725404950000000159e+00
8.190000000000000568e+01,8.736893507999999642e+00,5.172521971000000107e+00
8.209999999999999432e+01,7.145655428000000420e+00,4.290360755000000026e+00
8.229999999999999716e+01,1.200824455000000057e+01,4.938747357999999643e+00
8.250000000000000000e+01,1.134205056000000056e+01,3.738351470000000010e+00
8.270000000000000284e+01,1.146496458000000018e+01,4.628182073999999702e+00
8.290000000000000568e+01,1.683449519999999922e+01,6.537954240000000361e+00
8.309999999999999432e+01,2.358582338000000078e+01,9.220643395999999825e+00
8.329999999999999716e+01,2.572702719999999843e+01,7.879028878999999819e+00
8.350000000000000000e+01,1.930979173000000060e+01,7.248863272000000357e+00
8.370000000000000284e+01,1.209433386000000077e+01,5.331899510000000397e+00
8.390000000000000568e+01,2.563115071000000000e+01,7.556684158000000373e+00
8.409999999999999432e+01,1.720353731999999880e+01,6.713425648000000301e+00
8.429999999999999716e+01,3.279346504000000095e+01,8.891138113000000232e+00
8.450000000000000000e+01,3.286910535999999894e+01,9.156069494000000475e+00
8.470000000000000284e+01,4.154363166000000263e+01,1.016961666000000086e+01
8.490000000000000568e+01,3.519307536000000169e+01,9.084887043000000162e+00
8.509999999999999432e+01,4.892759920000000307e+01,1.120864478999999925e+01
8.529999999999999716e+01,5.333857497000000336e+01,1.203100466000000068e+01
8.550000000000000000e+01,5.853554886999999951e+01,1.269670995999999974e+01
8.570000000000000284e+01,5.676616599999999835e+01,1.258729851000000011e+01
8.590000000000000568e+01,5.133840499000000079e+01,1.145479854999999958e+01
8.609999999999999432e+01,5.182903799000000333e+01,1.167829440999999946e+01
8.629999999999999716e+01,6.441501653000000260e+01,1.232286580000000065e+01
8.650000000000000000e+01,6.758019638000000384e+01,1.340897314000000051e+01
8.670000000000000284e+01,4.969683698000000049e+01,1.091116728999999985e+01
8.690000000000000568e+01,8.402846334999999556e+01,1.566306246000000080e+01
8.709999999999999432e+01,1.071527870000000036e+02,1.759262628999999833e+01
8.729999999999999716e+01,1.083710231999999962e+02,1.723012874000000139e+01
8.750000000000000000e+01,1.038551791000000009e+02,1.704407266999999848e+01
8.770000000000000284e+01,1.280279922999999940e+02,1.773897294000000002e+01
8.790000000000000568e+01,9.849673579999999617e+01,1.587301865999999961e+01
8.809999999999999432e+01,1.232079868000000005e+02,1.794978893000000042e+01
8.829999999999999716e+01,1.023613693000000069e+02,1.631315954000000090e+01
8.850000000000000000e+01,8.402686011999999494e+01,1.416631016000000010e+01
8.870000000000000284e+01,1.744494023000000027e+02,2.192861519999999942e+01
8.890000000000000568e+01,1.433366102999999896e+02,1.984894494999999992e+01
8.909999999999999432e+01,1.239317202999999949e+02,1.722815493999999958e+01
8.929999999999999716e+01,1.481994990000000030e+02,1.961018637999999825e+01
8.950000000000000000e+01,1.451633305000000007e+02,1.933160392999999999e+01
8.970000000000000284e+01,1.087452227999999934e+02,1.630567381999999910e+01
8.990000000000000568e+01,1.408655168999999887e+02,1.909053135999999995e+01
9.009999999999999432e+01,1.401093169000000103e+02,1.985742533000000165e+01
9.029999999999999716e+01,1.443899499000000048e+02,1.926709070000000068e+01
9.050000000000000000e+01,1.478757827999999961e+02,1.888685308999999890e+01
9.070000000000000284e+01,1.603698695999999870e+02,2.071926390999999867e+01
9.090000000000000568e+01,1.655467266999999936e+02,2.112044291999999857e+01
9.109999999999999432e+01,1.512489272999999912e+02,1.953119386999999918e+01
9.129999999999999716e+01,1.400585007999999902e+02,1.780804546999999971e+01
9.150000000000000000e+01,1.215669477999999941e+02,1.727530785000000080e+01
9.170000000000000284e+01,1.150961049999999943e+02,1.582753948000000044e+01
9.190000000000000568e+01,1.197327832999999941e+02,1.637619246999999945e+01
9.209999999999999432e+01,8.389198725999999340e+01,1.360762762999999964e+01
9.229999999999999716e+01,1.190879604999999941e+02,1.588643113000000007e+01
9.250000000000000000e+01,9.401111441999999840e+01,1.434375415000000054e+01
9.270000000000000284e+01,1.206758137000000062e+02,1.605304500000000090e+01
9.290000000000000568e+01,1.103552832000000024e+02,1.500619700000000023e+01
9.309999999999999432e+01,1.120392712000000017e+02,1.541313103999999967e+01
9.329999999999999716e+01,7.986729963999999882e+01,1.239156720999999983e+01
9.350000000000000000e+01,1.002934146999999996e+02,1.475809122000000073e+01
9.370000000000000284e+01,1.036032181000000065e+02,1.345923752999999934e+01
9.390000000000000568e+01,1.057367662999999993e+02,1.482166961999999977e+01
9.409999999999999432e+01,8.392126575999999716e+01,1.103688973000000040e+01
9.429999999999999716e+01,5.353443134999999842e+01,1.018207559000000018e+01
9.450000000000000000e+01,9.558962058000000184e+01,1.321626011999999939e+01
9.470000000000000284e+01,5.574437097999999935e+01,8.476163211999999447e+00
9.490000000000000568e+01,4.841838433000000208e+01,6.919659979999999599e+00
9.509999999999999432e+01,5.892544928000000226e+01,9.486392388000000508e+00
9.529999999999999716e+01,5.752580449999999956e+01,8.225449058000000591e+00
9.550000000000000000e+01,5.003885916000000122e+01,9.173605282000000471e+00
9.570000000000000284e+01,4.171815669000000071e+01,6.653149893000000148e+00
9.590000000000000568e+01,5.854352553999999742e+01,1.004504616000000006e+01
9.609999999999999432e+01,3.464570558999999861e+01,5.829217577999999733e+00
9.629999999999999716e+01,4.994290180000000134e+01,6.732035957999999987e+00
9.650000000000000000e+01,4.532254180000000332e+01,8.447813432000000233e+00
9.670000000000000284e+01,4.228797890999999964e+01,6.696084447999999689e+00
9.690000000000000568e+01,4.286388417999999945e+01,6.220260516999999822e+00
9.709999999999999432e+01,3.369658701000000178e+01,6.092801290999999786e+00
9.729999999999999716e+01,3.227806876999999730e+01,6.376292803000000120e+00
9.750000000000000000e+01,2.832445179000000124e+01,4.741123297999999764e+00
9.770000000000000284e+01,3.467675650000000331e+01,6.609997504999999940e+00
9.790000000000000568e+01,2.769955133999999930e+01,4.756602914000000126e+00
9.809999999999999432e+01,3.184293180999999962e+01,6.683854633000000156e+00
9.829999999999999716e+01,2.324399522999999945e+01,4.146194147000000108e+00
9.850000000000000000e+01,2.804121898000000002e+01,7.805789940000000371e+00
9.870000000000000284e+01,2.106793380999999954e+01,4.437399766999999606e+00
9.890000000000000568e+01,2.268995912999999831e+01,5.133240488000000212e+00
9.909999999999999432e+01,1.669550655000000106e+01,3.532313792000000063e+00
9.929999999999999716e+01,1.834821679999999944e+01,3.950931104999999999e+00
9.950000000000000000e+01,2.379958541999999966e+01,5.737319639999999943e+00
9.970000000000000284e+01,1.516630699000000071e+01,3.306962560000000106e+00
9.990000000000000568e+01,9.102665301000000042e+00,2.302263112999999972e+00
