x_axis,Intensity,Error
1.009999999999999964e+01,2.455537611000000009e+00,1.773777358000000026e+00
1.030000000000000071e+01,2.502957417000000184e+00,1.920139660000000026e+00
1.050000000000000000e+01,8.713978300999999149e+00,6.848335997999999591e+00
1.069999999999999929e+01,9.725161643999999939e+00,4.822860428000000255e+00
1.090000000000000036e+01,9.247714590999999373e+00,6.774293504000000077e+00
1.109999999999999964e+01,3.184687331000000121e+00,1.813615779999999900e+00
1.130000000000000071e+01,2.803212762999999885e+00,2.142432160999999891e+00
1.150000000000000000e+01,1.133310116000000001e+01,7.580705297999999814e+00
1.169999999999999929e+01,3.438161313000000163e+00,2.281859059999999939e+00
1.190000000000000036e+01,2.720186666000000031e+00,1.804689108999999902e+00
1.209999999999999964e+01,6.894419678000000218e+00,4.292960910999999768e+00
1.230000000000000071e+01,4.591224576999999862e-01,3.771566874999999763e-01
1.250000000000000000e+01,5.719117135000000296e+00,4.891899451999999648e+00
1.269999999999999929e+01,1.349905226999999996e+01,6.122988044999999602e+00
1.290000000000000036e+01,5.584122781999999674e+00,3.438331513000000061e+00
1.309999999999999964e+01,6.124362258999999753e+00,3.240007845000000053e+00
1.330000000000000071e+01,5.640481902999999742e-01,5.096366963999999777e-01
1.350000000000000000e+01,1.202892198000000024e+00,8.519671725999999889e-01
1.369999999999999929e+01,2.461737544000000000e+00,2.563656441000000008e+00
1.390000000000000036e+01,3.283737696999999844e+00,1.785422376999999949e+00
1.409999999999999964e+01,9.591101232999999837e+00,5.719083694000000051e+00
1.430000000000000071e+01,1.566684854999999921e+01,8.364775771999999776e+00
1.450000000000000000e+01,1.127064308000000015e+00,7.160361531000000168e-01
1.469999999999999929e+01,6.970183586999999514e-01,5.802289231999999686e-01
1.490000000000000036e+01,2.430608206000000049e+00,1.806948986999999951e+00
1.509999999999999964e+01,5.414229491999999588e+00,3.407211558000000196e+00
1.530000000000000071e+01,3.426581264000000182e+00,2.852615618000000186e+00
1.550000000000000000e+01,7.556152291000000076e+00,4.373353801999999568e+00
1.569999999999999929e+01,1.722922367000000010e+00,1.800157038000000043e+00
1.590000000000000036e+01,1.203972588000000038e-01,1.195445165000000032e-01
1.610000000000000142e+01,1.869778254000000084e+00,1.869246994999999911e+00
1.630000000000000071e+01,3.339802372999999935e+00,3.591425403000000127e+00
1.650000000000000000e+01,5.656854565999999807e+00,3.146712384999999834e+00
1.669999999999999929e+01,5.200352912999999688e+00,4.566232402999999884e+00
1.689999999999999858e+01,2.356476467999999880e+00,1.860511231000000043e+00
1.710000000000000142e+01,3.888461416000000170e+00,2.144033744000000130e+00
1.730000000000000071e+01,2.091694399000000093e+00,1.813968663000000037e+00
1.750000000000000000e+01,4.820544660999999564e+00,2.809901471999999956e+00
1.769999999999999929e+01,2.938413837999999778e+00,3.031279973000000183e+00
1.789999999999999858e+01,1.159783322000000005e+01,5.221251363000000367e+00
1.810000000000000142e+01,9.338975141000000590e+00,4.941159942999999721e+00
1.830000000000000071e+01,1.458523708999999968e+01,7.174268933999999653e+00
1.850000000000000000e+01,1.118336846000000051e+00,8.278803625999999749e-01
1.869999999999999929e+01,5.952192895999999678e+00,4.337817334000000358e+00
1.889999999999999858e+01,2.674258176000000042e-01,2.565624590999999732e-01
1.910000000000000142e+01,7.247413125999999650e+00,7.071286233999999560e+00
1.930000000000000071e+01,9.469046829999999915e+00,7.381706791000000045e+00
1.950000000000000000e+01,2.117665070000000149e+00,1.552874217999999917e+00
1.969999999999999929e+01,1.460064473999999990e+01,6.791890046999999875e+00
1.989999999999999858e+01,5.753709319999999572e+00,3.133917906000000198e+00
2.010000000000000142e+01,5.432623589000000308e+00,3.095756827000000211e+00
2.030000000000000071e+01,9.818057055999999949e-02,1.035861844999999976e-01
2.050000000000000000e+01,6.118458058999999949e+00,3.593748397999999789e+00
2.069999999999999929e+01,4.296834362000000240e+00,2.685329459000000085e+00
2.089999999999999858e+01,1.444277322000000030e+00,1.052329786999999905e+00
2.110000000000000142e+01,5.724899599999999644e+00,3.885619049000000214e+00
2.130000000000000071e+01,5.712985445000000162e+00,3.349713014000000211e+00
2.150000000000000000e+01,5.405135904999999852e+00,3.195644693999999841e+00
2.169999999999999929e+01,6.025631209000000155e+00,4.007155092999999724e+00
2.189999999999999858e+01,2.476329384000000022e+00,1.565902177999999978e+00
2.210000000000000142e+01,2.563983705000000057e+00,1.783958428999999901e+00
2.230000000000000071e+01,1.723012857000000064e+00,9.339562932999999623e-01
2.250000000000000000e+01,2.386211863999999849e+00,1.941986600999999979e+00
2.269999999999999929e+01,3.237642934000000139e+00,2.330201052000000050e+00
2.289999999999999858e+01,1.288068994000000078e+00,1.094211578999999990e+00
2.310000000000000142e+01,5.089091158999999642e+00,3.366503757999999902e+00
2.330000000000000071e+01,1.642874723999999897e+00,1.216869106000000089e+00
2.350000000000000000e+01,1.705901797999999969e+00,1.165822863999999903e+00
2.369999999999999929e+01,6.068302351000000039e-01,6.218741522999999827e-01
2.389999999999999858e+01,9.991539928999999820e-02,1.223704521999999933e-01
2.410000000000000142e+01,4.616213217000000313e+00,2.969608220000000021e+00
2.430000000000000071e+01,2.113823843000000036e-01,1.183811131999999988e-01
2.450000000000000000e+01,5.294720716999999688e+00,2.763551314999999953e+00
2.469999999999999929e+01,1.012792370000000020e+01,6.871977536000000164e+00
2.489999999999999858e+01,1.324856492999999968e+00,9.747015864000000418e-01
2.510000000000000142e+01,5.035573351000000031e+00,2.197397731000000132e+00
2.530000000000000071e+01,1.245943747999999962e+00,1.052279328000000014e+00
2.550000000000000000e+01,2.583530002999999908e+00,1.485876114000000081e+00
2.569999999999999929e+01,1.064855376999999947e+01,7.472853176000000097e+00
2.589999999999999858e+01,2.173631150999999928e+00,2.375945371999999889e+00
2.610000000000000142e+01,8.480978908999999177e+00,3.953599942999999950e+00
2.630000000000000071e+01,1.004135151999999920e+00,1.041159245000000011e+00
2.650000000000000000e+01,5.503623923000000140e+00,5.012722927000000439e+00
2.669999999999999929e+01,1.357486417999999917e+00,1.280474550000000100e+00
2.689999999999999858e+01,5.878744849000000272e+00,3.304973572999999831e+00
2.710000000000000142e+01,5.267234437999999963e-03,3.384756946000000172e-03
2.730000000000000071e+01,2.079302015000000114e+00,1.422800834000000014e+00
2.750000000000000000e+01,5.058999414999999722e+00,3.987746598999999836e+00
2.769999999999999929e+01,2.296547432000000111e+00,1.446983260000000104e+00
2.789999999999999858e+01,1.182464997999999934e+00,9.065874040000000411e-01
2.810000000000000142e+01,1.368305871000000007e+00,1.179372786999999922e+00
2.830000000000000071e+01,1.544164030999999992e+00,1.417757066999999926e+00
2.850000000000000000e+01,2.027657453999999859e+00,1.509816770999999891e+00
2.869999999999999929e+01,2.634607072000000105e+00,1.870633494000000008e+00
2.889999999999999858e+01,4.583401776999999733e+00,3.113420504000000033e+00
2.910000000000000142e+01,2.356463597999999937e+00,1.373168793999999915e+00
2.930000000000000071e+01,5.275070988999999599e+00,4.043888811999999611e+00
2.950000000000000000e+01,4.453093686999999967e+00,4.160281046999999788e+00
2.969999999999999929e+01,3.094171486000000026e+00,2.524464325999999925e+00
2.989999999999999858e+01,3.577010302999999780e+00,2.555580867000000200e+00
3.010000000000000142e+01,8.459256909000000491e+00,5.759722159999999924e+00
3.030000000000000071e+01,3.170397845000000103e+00,2.273410338999999780e+00
3.050000000000000000e+01,7.222053841000000141e+00,6.630616873000000133e+00
3.069999999999999929e+01,2.683898568000000040e+00,1.797536347000000090e+00
3.089999999999999858e+01,1.437865638999999973e+00,1.182706472000000009e+00
3.110000000000000142e+01,1.620646921000000074e+00,1.134880716999999928e+00
3.130000000000000071e+01,5.932364558999999815e+00,4.359777554999999971e+00
3.150000000000000000e+01,3.779724896999999917e+00,3.759376866000000206e+00
3.169999999999999929e+01,3.523391428000000047e+00,1.793529525999999930e+00
3.189999999999999858e+01,2.177303353000000108e+00,1.514127932999999926e+00
3.210000000000000142e+01,3.859742231999999884e+00,2.921532862999999924e+00
3.229999999999999716e+01,5.639606986999999627e+00,5.302330646999999786e+00
3.250000000000000000e+01,3.924287332000000017e+00,2.787970110999999918e+00
3.270000000000000284e+01,3.523308210999999801e+00,1.569459302000000056e+00
3.289999999999999858e+01,3.852343771999999777e-01,2.557671608000000041e-01
3.310000000000000142e+01,1.851545782999999945e+00,1.106579173000000083e+00
3.329999999999999716e+01,2.013406262000000169e+00,1.300854541999999947e+00
3.350000000000000000e+01,4.273740994999999820e+00,2.797273858000000057e+00
3.370000000000000284e+01,5.603949542999999700e+00,4.122501880999999813e+00
3.389999999999999858e+01,6.271036545000000517e-01,6.502724004000000058e-01
3.410000000000000142e+01,1.318410112000000023e+00,1.360335639000000096e+00
3.429999999999999716e+01,5.631523278999999604e+00,3.414207814000000063e+00
3.450000000000000000e+01,6.820263796000000656e-02,5.596008317000000093e-02
3.470000000000000284e+01,4.362012328999999689e+00,2.721613202999999981e+00
3.489999999999999858e+01,1.771417776000000055e+00,1.526859224999999931e+00
3.510000000000000142e+01,2.321459701000000209e+00,2.253733886000000020e+00
3.529999999999999716e+01,1.309196073000000071e+00,1.217050846000000019e+00
3.550000000000000000e+01,1.269848013000000053e+00,9.564355351000000116e-01
3.570000000000000284e+01,8.558764756000000418e+00,4.881458947999999687e+00
3.589999999999999858e+01,1.077435887000000037e+00,9.819575837999999779e-01
3.610000000000000142e+01,6.311919932000000344e+00,4.237978516000000084e+00
3.629999999999999716e+01,4.715899355000000348e+00,2.972537990999999824e+00
3.650000000000000000e+01,2.233507480000000101e+00,1.414422422999999984e+00
3.670000000000000284e+01,5.282245044999999806e+00,5.346574238999999729e+00
3.689999999999999858e+01,1.615904653999999940e-02,1.017879736999999923e-02
3.710000000000000142e+01,1.358343335999999901e+00,9.026333306999999584e-01
3.729999999999999716e+01,2.253830178999999934e+00,1.290240099000000029e+00
3.750000000000000000e+01,2.751595269000000066e+00,1.715508937999999928e+00
3.770000000000000284e+01,1.884804303000000014e-01,1.970484428000000010e-01
3.789999999999999858e+01,1.210595945999999978e+00,1.401988105000000040e+00
3.810000000000000142e+01,6.938607053000000136e+00,4.288582053999999921e+00
3.829999999999999716e+01,2.172295214000000030e+00,1.323889362999999930e+00
3.850000000000000000e+01,6.506416923999999824e+00,3.950309578999999793e+00
3.870000000000000284e+01,5.981807523999999709e+00,3.057783558000000124e+00
3.889999999999999858e+01,8.323425304000000580e+00,5.435043542999999922e+00
3.910000000000000142e+01,2.788994848000000193e+00,1.672280412999999966e+00
3.929999999999999716e+01,9.847871988999999715e+00,5.261494120000000052e+00
3.950000000000000000e+01,7.399159064000000008e+00,4.361804959999999731e+00
3.970000000000000284e+01,1.013578163000000032e+01,4.574587567000000021e+00
3.989999999999999858e+01,5.360946304999999690e+00,2.912195944000000036e+00
4.010000000000000142e+01,1.382105424999999954e+01,4.799655325999999889e+00
4.029999999999999716e+01,1.468430513000000026e+01,4.928806400000000032e+00
4.050000000000000000e+01,3.311448920000000129e+01,7.586124771999999794e+00
4.070000000000000284e+01,4.249649944000000090e+01,7.790954011000000179e+00
4.089999999999999858e+01,6.293499546000000322e+01,1.059171820999999980e+01
4.110000000000000142e+01,8.448489347999999666e+01,1.228958403999999938e+01
4.129999999999999716e+01,1.070760805999999974e+02,1.377816057999999977e+01
4.150000000000000000e+01,1.477785852000000091e+02,1.572883556000000027e+01
4.170000000000000284e+01,1.586889135000000124e+02,1.651900696999999951e+01
4.189999999999999858e+01,2.293884566000000120e+02,1.972510644000000113e+01
4.210000000000000142e+01,2.009528034999999875e+02,1.864291868999999835e+01
4.229999999999999716e+01,2.610652110999999991e+02,2.140022781000000052e+01
4.250000000000000000e+01,2.925776993999999718e+02,2.254682172000000051e+01
4.270000000000000284e+01,2.663880626000000120e+02,2.129002402000000060e+01
4.289999999999999858e+01,3.139594902000000047e+02,2.371534464000000142e+01
4.310000000000000142e+01,3.395924807000000101e+02,2.384202430999999933e+01
4.329999999999999716e+01,3.159893050000000017e+02,2.366374039999999823e+01
4.350000000000000000e+01,2.665660394000000224e+02,2.092904410999999953e+01
4.370000000000000284e+01,2.839942985999999792e+02,2.240445903000000172e+01
4.389999999999999858e+01,2.300810879000000000e+02,2.032092435999999935e+01
4.410000000000000142e+01,2.422153917999999919e+02,2.080134248999999969e+01
4.429999999999999716e+01,1.745682247000000018e+02,1.731751576999999997e+01
4.450000000000000000e+01,1.334543868000000089e+02,1.521353490000000086e+01
4.470000000000000284e+01,1.136657632999999947e+02,1.395877443000000007e+01
4.489999999999999858e+01,8.423638065999999469e+01,1.189213104000000065e+01
4.510000000000000142e+01,7.408086289999999963e+01,1.139156537000000036e+01
4.529999999999999716e+01,4.073067755000000290e+01,8.713990728000000630e+00
4.550000000000000000e+01,4.307534382000000051e+01,9.465568641000000838e+00
4.570000000000000284e+01,3.058175753000000086e+01,7.293168214999999677e+00
4.589999999999999858e+01,1.314655194999999921e+01,4.558143586999999997e+00
4.610000000000000142e+01,1.213615116000000071e+01,4.686337712000000266e+00
4.629999999999999716e+01,2.081579122000000126e+01,7.412443211000000254e+00
4.650000000000000000e+01,8.209801318000000236e+00,3.094727781000000011e+00
4.670000000000000284e+01,1.227833206000000033e+01,4.063408759999999731e+00
4.689999999999999858e+01,1.358265693000000063e+01,4.738916702000000036e+00
4.710000000000000142e+01,1.739622217999999876e+01,6.094818472000000042e+00
4.729999999999999716e+01,1.716346105999999949e+01,4.511970468000000345e+00
4.750000000000000000e+01,3.655275753000000094e+01,6.950106177000000329e+00
4.770000000000000284e+01,2.528352845999999943e+01,7.673281599000000064e+00
4.789999999999999858e+01,4.861445023999999648e+01,7.626738542000000010e+00
4.810000000000000142e+01,4.992977725000000078e+01,7.485748131000000249e+00
4.829999999999999716e+01,5.276977664999999718e+01,7.324884992000000317e+00
4.850000000000000000e+01,7.836825290000000166e+01,9.422370922000000704e+00
4.870000000000000284e+01,7.926895996999999738e+01,9.887962954000000693e+00
4.889999999999999858e+01,1.020218749999999943e+02,1.158356127000000058e+01
4.910000000000000142e+01,1.224018599999999992e+02,1.229099335999999987e+01
4.929999999999999716e+01,1.483074431000000004e+02,1.317991929000000084e+01
4.950000000000000000e+01,1.407219555000000071e+02,1.288821466999999998e+01
4.970000000000000284e+01,1.700105920000000026e+02,1.410446465999999965e+01
4.989999999999999858e+01,1.560756265999999925e+02,1.367405740999999963e+01
5.010000000000000142e+01,1.564763614999999959e+02,1.316138836999999917e+01
5.029999999999999716e+01,1.604935373000000141e+02,1.342228571999999964e+01
5.050000000000000000e+01,1.603431459999999902e+02,1.370299329000000021e+01
5.070000000000000284e+01,1.376626984000000107e+02,1.269600928000000017e+01
5.089999999999999858e+01,1.394470263000000045e+02,1.308616774000000049e+01
5.110000000000000142e+01,1.303042459000000122e+02,1.247541750999999977e+01
5.129999999999999716e+01,9.543020731999999384e+01,1.044407694999999947e+01
5.150000000000000000e+01,1.035243890999999934e+02,1.135360494000000031e+01
5.170000000000000284e+01,9.364755329000000472e+01,1.008444749999999956e+01
5.189999999999999858e+01,7.115076870000000042e+01,8.908831830000000451e+00
5.210000000000000142e+01,6.651941834999999514e+01,8.434310116000000690e+00
5.229999999999999716e+01,5.509038005000000027e+01,8.483067460999999199e+00
5.250000000000000000e+01,3.266940112000000340e+01,5.968836117999999580e+00
5.270000000000000284e+01,2.499819370000000163e+01,5.237498808999999866e+00
5.289999999999999858e+01,3.359685656999999992e+01,6.120730286999999770e+00
5.310000000000000142e+01,2.569258252999999925e+01,8.388693256999999903e+00
5.329999999999999716e+01,2.902591096000000093e+01,7.712469536999999598e+00
5.350000000000000000e+01,1.527790000999999975e+01,3.964930314000000067e+00
5.370000000000000284e+01,6.633500100000000010e+00,2.107436566000000067e+00
5.389999999999999858e+01,3.234406557999999876e+00,1.042000612999999909e+00
5.410000000000000142e+01,5.165043765000000064e+00,2.003670352999999960e+00
5.429999999999999716e+01,7.186850631000000433e+00,4.323536358000000135e+00
5.450000000000000000e+01,3.660997183000000099e+00,1.913840658000000028e+00
5.470000000000000284e+01,5.747458409000000046e+00,4.728751510000000380e+00
5.489999999999999858e+01,5.935586853000000218e+00,3.469092358999999792e+00
5.510000000000000142e+01,3.839092179000000105e+00,2.705685175000000164e+00
5.529999999999999716e+01,5.286695742000000475e-01,2.200358802000000058e-01
5.550000000000000000e+01,3.381967228999999797e+00,1.873726365000000005e+00
5.570000000000000284e+01,4.400447554999999955e-01,2.286166320999999946e-01
5.589999999999999858e+01,4.503497982999999927e+00,2.439790334000000005e+00
5.610000000000000142e+01,2.326176107000000215e+00,1.594679777000000076e+00
5.629999999999999716e+01,1.441015742000000044e+00,1.109509558000000062e+00
5.650000000000000000e+01,4.999288560000000103e+00,3.044280008999999954e+00
5.670000000000000284e+01,1.049526481999999916e+01,6.150316704999999828e+00
5.689999999999999858e+01,2.750372211999999816e+00,2.635051028999999989e+00
5.710000000000000142e+01,1.635892960999999923e+00,1.251762822000000108e+00
5.729999999999999716e+01,8.589357002999999935e+00,5.330481650000000293e+00
5.750000000000000000e+01,2.442066775999999884e+00,1.416587196999999909e+00
5.770000000000000284e+01,2.856954551999999925e+00,2.185108247000000059e+00
5.789999999999999858e+01,3.458787053000000000e+00,2.465170628000000086e+00
5.810000000000000142e+01,1.259875815000000010e+01,9.085255361999999835e+00
5.829999999999999716e+01,5.597585598000000218e+00,3.426711511000000154e+00
5.850000000000000000e+01,1.574308922000000055e-01,1.089730455999999986e-01
5.870000000000000284e+01,4.516204480999999937e+00,2.297321768000000208e+00
5.889999999999999858e+01,8.839907255000000186e-01,6.384519036000000369e-01
5.910000000000000142e+01,3.489178690000000138e+00,3.526868647000000134e+00
5.929999999999999716e+01,5.043757701999999732e+00,2.419577765000000102e+00
5.950000000000000000e+01,6.937335155999999614e+00,5.955560457999999890e+00
5.970000000000000284e+01,7.850757972000000251e+00,4.565780518000000399e+00
5.989999999999999858e+01,5.008826638999999581e+00,3.033876515999999857e+00
6.010000000000000142e+01,4.356932142999999868e+00,3.083425638000000024e+00
6.029999999999999716e+01,5.695645365999999932e+00,2.936908945999999965e+00
6.050000000000000000e+01,5.627654488000000121e+00,2.888470057000000146e+00
6.070000000000000284e+01,5.125433842999999712e+00,2.756551072000000158e+00
6.089999999999999858e+01,1.073828390999999982e+01,4.661932321000000101e+00
6.110000000000000142e+01,6.173379925999999962e+00,2.417887365999999982e+00
6.129999999999999716e+01,1.595496676000000003e+00,7.232065559000000476e-01
6.150000000000000000e+01,8.091072816000000500e+00,3.538863751000000057e+00
6.170000000000000284e+01,4.180393446000000068e+00,2.330100954999999807e+00
6.189999999999999858e+01,1.042565422000000019e+01,4.665468337000000076e+00
6.210000000000000142e+01,7.541792463000000168e+00,4.522425176999999685e+00
6.229999999999999716e+01,5.619787287000000298e+00,4.107540065000000240e+00
6.250000000000000000e+01,1.685764953999999927e+00,3.288024166999999887e-01
6.270000000000000284e+01,3.925963877000000046e+00,2.725597499000000035e+00
6.289999999999999858e+01,5.488946231999999981e+00,4.342795471999999712e+00
6.310000000000000142e+01,6.343573553999999781e+00,3.070653019999999955e+00
6.329999999999999716e+01,2.669761948000000107e+00,1.930429098999999926e+00
6.350000000000000000e+01,4.898397419000000141e+00,2.872351205000000185e+00
6.370000000000000284e+01,9.449682246000000063e+00,3.800017808000000219e+00
6.389999999999999858e+01,7.958597707000000021e+00,4.441456789000000072e+00
6.409999999999999432e+01,4.969264370000000319e+00,2.575437577999999839e+00
6.429999999999999716e+01,2.372547850000000125e+00,1.393706381000000105e+00
6.450000000000000000e+01,4.059886806999999820e+00,2.677902769000000127e+00
6.470000000000000284e+01,3.199831382000000168e+00,1.909572159000000102e+00
6.490000000000000568e+01,4.849621514999999938e+00,2.400175347999999875e+00
6.509999999999999432e+01,1.266510151999999945e+00,9.570605506999999568e-01
6.529999999999999716e+01,7.153839755999999994e+00,4.566342452999999857e+00
6.550000000000000000e+01,9.415913826000000597e+00,5.387911038999999569e+00
6.570000000000000284e+01,4.081800014999999782e+00,2.885711135000000205e+00
6.590000000000000568e+01,4.073193633999999896e+00,2.400136555000000005e+00
6.609999999999999432e+01,1.062852764000000061e+00,1.035914594999999938e+00
6.629999999999999716e+01,1.638980809999999977e+01,9.469567453999999884e+00
6.650000000000000000e+01,1.659468818999999984e+00,1.124054059999999966e+00
6.670000000000000284e+01,3.280666930999999842e+00,2.335530617999999947e+00
6.690000000000000568e+01,2.933726619999999841e+00,2.336755955000000107e+00
6.709999999999999432e+01,4.788573279000000404e+00,2.559435190999999943e+00
6.729999999999999716e+01,7.876294064999999733e+00,3.630413658000000154e+00
6.750000000000000000e+01,1.152650247000000050e+01,5.696253832000000017e+00
6.770000000000000284e+01,5.527080261000000050e+00,2.639535482999999960e+00
6.790000000000000568e+01,1.013561050999999935e+01,4.261695044999999737e+00
6.809999999999999432e+01,1.176553755000000034e+00,1.168391721000000105e+00
6.829999999999999716e+01,7.701252041000000048e+00,3.234590550000000064e+00
6.850000000000000000e+01,7.839493845999999877e+00,3.432858303000000166e+00
6.870000000000000284e+01,1.296703308000000021e+01,4.537074211000000190e+00
6.890000000000000568e+01,5.069661467000000421e+00,2.660834020999999883e+00
6.909999999999999432e+01,1.364495374000000005e+01,4.353426703000000231e+00
6.929999999999999716e+01,1.891852998999999969e+01,5.543061222000000399e+00
6.950000000000000000e+01,2.480888213000000064e+01,6.986781033999999835e+00
6.970000000000000284e+01,3.301469577999999672e+01,8.906366670000000596e+00
6.990000000000000568e+01,2.151609348999999938e+01,5.733416348999999634e+00
7.009999999999999432e+01,3.450748930000000314e+01,7.185336951000000028e+00
7.029999999999999716e+01,3.843213595000000282e+01,8.197609999000000869e+00
7.050000000000000000e+01,4.869074530000000323e+01,9.703842258999999970e+00
7.070000000000000284e+01,3.238726971999999904e+01,7.494985763999999939e+00
7.090000000000000568e+01,5.407244476000000333e+01,9.198432736000000887e+00
7.109999999999999432e+01,4.620743324000000030e+01,8.473185976999999980e+00
7.129999999999999716e+01,5.863456426999999849e+01,9.819064686999999125e+00
7.150000000000000000e+01,6.704067562000000180e+01,1.046045185999999916e+01
7.170000000000000284e+01,7.084132608999999547e+01,1.080705511000000030e+01
7.190000000000000568e+01,6.388468897999999996e+01,1.012522633000000027e+01
7.209999999999999432e+01,8.621632882000000109e+01,1.184813147000000022e+01
7.229999999999999716e+01,9.728727768000000253e+01,1.238596966000000066e+01
7.250000000000000000e+01,9.711161577999999395e+01,1.268881544000000083e+01
7.270000000000000284e+01,1.007082199999999972e+02,1.281686325000000082e+01
7.290000000000000568e+01,6.496861717999999541e+01,9.540554972000000689e+00
7.309999999999999432e+01,1.170716924999999975e+02,1.357103210000000004e+01
7.329999999999999716e+01,9.250661164999999642e+01,1.194401745000000048e+01
7.350000000000000000e+01,1.070552090000000049e+02,1.293680898000000035e+01
7.370000000000000284e+01,1.142760983000000010e+02,1.354986266000000050e+01
7.390000000000000568e+01,1.531883095999999966e+02,1.706787312999999884e+01
7.409999999999999432e+01,7.966334899000000291e+01,1.088944146999999951e+01
7.429999999999999716e+01,1.333824376999999970e+02,1.452916105999999985e+01
7.450000000000000000e+01,1.019449757000000005e+02,1.253375018999999924e+01
7.470000000000000284e+01,1.056789648999999969e+02,1.320986936999999983e+01
7.490000000000000568e+01,1.071533117999999973e+02,1.308354774000000020e+01
7.509999999999999432e+01,1.232446604999999948e+02,1.480218827999999931e+01
7.529999999999999716e+01,7.370410506999999711e+01,1.095719142999999995e+01
7.550000000000000000e+01,9.712185263000000646e+01,1.244252380000000002e+01
7.570000000000000284e+01,9.555705598000000123e+01,1.216010724000000032e+01
7.590000000000000568e+01,6.681347417000000632e+01,9.976339302999999603e+00
7.609999999999999432e+01,7.953939171999999758e+01,1.246431862999999929e+01
7.629999999999999716e+01,5.129071435000000179e+01,9.088786056000000002e+00
7.650000000000000000e+01,6.465053844999999910e+01,1.019771689000000059e+01
7.670000000000000284e+01,5.360464927999999674e+01,9.383416113999999197e+00
7.690000000000000568e+01,5.060900335000000183e+01,8.725454282999999478e+00
7.709999999999999432e+01,4.410319656000000066e+01,8.185581121000000238e+00
7.729999999999999716e+01,2.885762031999999877e+01,6.477566084000000224e+00
7.750000000000000000e+01,4.184821250000000248e+01,8.022002112999999213e+00
7.770000000000000284e+01,1.696777331999999916e+01,5.064804816999999737e+00
7.790000000000000568e+01,2.647532020999999958e+01,6.520875744999999668e+00
7.809999999999999432e+01,4.609610490000000027e+01,1.029564960000000085e+01
7.829999999999999716e+01,2.553191250000000068e+01,6.746373625000000374e+00
7.850000000000000000e+01,1.160210988999999948e+01,5.945517718999999701e+00
7.870000000000000284e+01,2.273052867000000177e+01,7.205676754999999822e+00
7.890000000000000568e+01,1.229320234999999961e+01,4.731718389000000080e+00
7.909999999999999432e+01,9.298627631000000449e+00,3.888290650000000070e+00
7.929999999999999716e+01,6.994659852999999927e+00,2.829052372000000037e+00
7.950000000000000000e+01,8.102415639000000169e+00,3.871869853000000194e+00
7.970000000000000284e+01,7.248157948000000239e+00,3.407178495999999779e+00
7.990000000000000568e+01,3.613959767999999961e+00,2.823534865000000060e+00
8.009999999999999432e+01,3.153889734999999916e+00,1.704966857000000058e+00
8.029999999999999716e+01,1.121128321000000039e+00,8.111441729999999684e-01
8.050000000000000000e+01,2.266572340999999824e+00,2.413654293000000006e+00
8.070000000000000284e+01,8.762019165999999970e+00,5.209886596999999675e+00
8.090000000000000568e+01,4.094621722000000297e+00,2.152175517999999954e+00
8.109999999999999432e+01,4.677982326999999607e+00,3.190474791000000199e+00
8.129999999999999716e+01,1.113311643000000073e+00,7.713979105999999586e-01
8.150000000000000000e+01,7.159867945000000233e+00,4.898105529000000402e+00
8.170000000000000284e+01,5.997910916999999564e+00,5.035119535999999840e+00
8.190000000000000568e+01,5.144891936999999693e+00,2.571955489000000039e+00
8.209999999999999432e+01,7.515372725999999837e+00,4.455648111000000355e+00
8.229999999999999716e+01,8.106551013000000694e+00,4.177031873999999867e+00
8.250000000000000000e+01,1.288284967000000059e+00,7.686278909000000548e-01
8.270000000000000284e+01,2.728705355999999860e+00,2.271716910999999950e+00
8.290000000000000568e+01,7.535516237000000395e+00,4.597916745000000027e+00
8.309999999999999432e+01,1.425776317000000049e+01,7.140521807999999915e+00
8.329999999999999716e+01,1.768412534999999863e+01,6.529577709999999868e+00
8.350000000000000000e+01,2.290873294000000016e+01,8.536791223999999900e+00
8.370000000000000284e+01,2.455714108000000095e+01,7.828274359999999987e+00
8.390000000000000568e+01,3.538396351000000095e+01,1.144305783000000076e+01
8.409999999999999432e+01,1.909123501999999917e+01,7.723306744000000279e+00
8.429999999999999716e+01,2.007020788999999894e+01,7.607478385000000287e+00
8.450000000000000000e+01,2.680156032000000010e+01,8.081446529000000822e+00
8.470000000000000284e+01,4.948082630999999765e+01,1.182440199999999919e+01
8.490000000000000568e+01,3.624617625999999859e+01,1.015639907999999991e+01
8.509999999999999432e+01,4.436048807000000238e+01,1.079227116000000031e+01
8.529999999999999716e+01,4.309873080999999928e+01,1.076371349999999971e+01
8.550000000000000000e+01,5.146376999000000296e+01,1.193886503000000054e+01
8.570000000000000284e+01,4.902465389999999701e+01,1.091551062999999999e+01
8.590000000000000568e+01,7.885018549000000121e+01,1.466639716999999976e+01
8.609999999999999432e+01,7.777700726999999858e+01,1.445804006000000008e+01
8.629999999999999716e+01,7.854442568000000335e+01,1.458244692999999970e+01
8.650000000000000000e+01,1.001443160000000034e+02,1.629394369999999981e+01
8.670000000000000284e+01,1.024106788999999935e+02,1.666773468999999963e+01
8.690000000000000568e+01,1.053339081000000022e+02,1.713269852000000171e+01
8.709999999999999432e+01,1.174114885000000044e+02,1.790456469000000084e+01
8.729999999999999716e+01,1.279472362000000061e+02,1.883784950000000080e+01
8.750000000000000000e+01,1.493987023999999906e+02,1.987281517999999991e+01
8.770000000000000284e+01,1.094779134999999997e+02,1.760219010000000139e+01
8.790000000000000568e+01,1.213123044999999962e+02,1.809444433000000174e+01
8.809999999999999432e+01,1.115510249999999957e+02,1.622715691999999876e+01
8.829999999999999716e+01,1.087160278000000062e+02,1.779129660999999984e+01
8.850000000000000000e+01,1.518929836000000080e+02,1.948472311000000090e+01
8.870000000000000284e+01,1.425611001000000044e+02,1.896518601000000004e+01
8.890000000000000568e+01,1.522904074999999864e+02,2.061157861999999952e+01
8.909999999999999432e+01,1.461961306000000036e+02,1.996661897999999979e+01
8.929999999999999716e+01,1.376836565000000121e+02,1.830713607999999937e+01
8.950000000000000000e+01,1.182874955000000057e+02,1.666441143999999852e+01
8.970000000000000284e+01,1.643954429000000061e+02,2.053134478999999857e+01
8.990000000000000568e+01,1.779408484999999871e+02,2.192360418999999894e+01
9.009999999999999432e+01,1.897083403999999973e+02,2.255845526999999962e+01
9.029999999999999716e+01,1.076987483000000054e+02,1.560750889000000008e+01
9.050000000000000000e+01,1.530244288000000097e+02,1.933192028999999934e+01
9.070000000000000284e+01,1.436745052999999928e+02,1.854466552999999962e+01
9.090000000000000568e+01,1.518901647000000139e+02,1.974825912000000017e+01
9.109999999999999432e+01,1.466481574999999964e+02,1.861411456000000086e+01
9.129999999999999716e+01,1.528202456999999868e+02,1.877491635000000159e+01
9.150000000000000000e+01,1.411216689000000031e+02,1.865865288000000177e+01
9.170000000000000284e+01,1.278365095000000053e+02,1.691765866000000074e+01
9.190000000000000568e+01,1.169859794000000051e+02,1.546799153000000082e+01
9.209999999999999432e+01,1.238876869999999997e+02,1.619751460999999892e+01
9.229999999999999716e+01,1.006421718999999939e+02,1.536770508000000035e+01
9.250000000000000000e+01,9.597925075999999933e+01,1.453220392999999966e+01
9.270000000000000284e+01,9.911462224999999648e+01,1.470870303999999962e+01
9.290000000000000568e+01,1.295774453999999878e+02,1.706797156000000015e+01
9.309999999999999432e+01,9.721924119999999903e+01,1.462838421999999916e+01
9.329999999999999716e+01,7.843554253000000642e+01,1.376674067999999984e+01
9.350000000000000000e+01,7.655265317999999297e+01,1.201219605000000001e+01
9.370000000000000284e+01,7.991322390999999925e+01,1.139723814999999973e+01
9.390000000000000568e+01,9.051219070000000499e+01,1.303547419000000041e+01
9.409999999999999432e+01,6.166429235999999747e+01,1.065604186000000020e+01
9.429999999999999716e+01,7.087697875000000636e+01,1.121545442999999942e+01
9.450000000000000000e+01,7.579172427000000312e+01,1.231847394999999956e+01
9.470000000000000284e+01,8.625950124999999957e+01,1.301831242999999994e+01
9.490000000000000568e+01,7.452270332999999880e+01,1.106900852999999962e+01
9.509999999999999432e+01,5.689603684000000072e+01,9.946004272999999785e+00
9.529999999999999716e+01,6.099484438999999725e+01,9.302739170000000613e+00
9.550000000000000000e+01,5.442342280999999815e+01,8.514240542999999661e+00
9.570000000000000284e+01,6.043499719999999797e+01,9.428565278000000660e+00
9.590000000000000568e+01,5.535285717000000005e+01,9.143792666999999597e+00
9.609999999999999432e+01,3.382675797999999645e+01,5.067500970000000216e+00
9.629999999999999716e+01,5.497325086000000027e+01,1.112449581999999992e+01
9.650000000000000000e+01,5.470398167999999828e+01,8.872948367999999419e+00
9.670000000000000284e+01,4.803870682000000158e+01,7.183850483999999703e+00
9.690000000000000568e+01,3.192647802999999840e+01,5.433163779000000027e+00
9.709999999999999432e+01,4.602376388999999790e+01,7.476769658000000263e+00
9.729999999999999716e+01,3.102752171999999931e+01,6.368494039999999856e+00
9.750000000000000000e+01,4.347298494000000346e+01,7.656698803000000275e+00
9.770000000000000284e+01,3.599606895000000151e+01,7.113401975000000377e+00
9.790000000000000568e+01,2.983184177000000048e+01,6.707034278000000072e+00
9.809999999999999432e+01,3.643790269000000137e+01,7.983586983000000359e+00
9.829999999999999716e+01,1.621672862000000137e+01,3.609705887000000057e+00
9.850000000000000000e+01,1.805190427000000142e+01,5.566442055999999639e+00
9.870000000000000284e+01,2.667011105999999998e+01,6.763051696999999862e+00
9.890000000000000568e+01,1.588667893999999947e+01,3.492081849999999932e+00
9.909999999999999432e+01,2.099924253000000007e+01,6.247903409000000075e+00
9.929999999999999716e+01,1.533484817000000078e+01,3.442112063999999805e+00
9.950000000000000000e+01,1.474849578999999977e+01,4.040184724000000394e+00
9.970000000000000284e+01,2.045698077000000126e+01,6.413974342000000384e+00
9.990000000000000568e+01,1.341765376999999937e+01,4.812714854000000209e+00
