x_axis,Intensity,Error
1.009999999999999964e+01,1.095824003999999974e+02,1.263747724000000083e+01
1.030000000000000071e+01,1.396896809000000133e+02,1.496402961000000076e+01
1.050000000000000000e+01,1.416284263000000010e+02,1.557443643999999949e+01
1.069999999999999929e+01,1.125626701999999995e+02,1.413386457000000007e+01
1.090000000000000036e+01,1.085812942000000021e+02,1.308299479000000076e+01
1.109999999999999964e+01,1.211509908000000024e+02,1.550842021000000059e+01
1.130000000000000071e+01,1.303493200000000058e+02,1.455795383999999970e+01
1.150000000000000000e+01,1.072447649000000069e+02,1.269942589000000055e+01
1.169999999999999929e+01,1.187574519000000066e+02,1.358107006000000005e+01
1.190000000000000036e+01,1.176317829999999987e+02,1.350176431999999949e+01
1.209999999999999964e+01,1.200982889999999941e+02,1.428567559999999936e+01
1.230000000000000071e+01,1.288544821000000127e+02,1.452109158999999927e+01
1.250000000000000000e+01,1.509117725000000121e+02,1.635659971999999840e+01
1.269999999999999929e+01,1.440250312000000008e+02,1.576258939999999953e+01
1.290000000000000036e+01,1.250609871999999996e+02,1.379724614000000038e+01
1.309999999999999964e+01,1.232366662000000019e+02,1.396433947999999958e+01
1.330000000000000071e+01,1.391438034999999900e+02,1.498332860000000011e+01
1.350000000000000000e+01,1.483540113999999903e+02,1.565681325999999984e+01
1.369999999999999929e+01,1.575170592999999997e+02,1.628962976000000040e+01
1.390000000000000036e+01,1.355488344000000041e+02,1.553645971000000081e+01
1.409999999999999964e+01,1.128356021000000027e+02,1.328418156000000039e+01
1.430000000000000071e+01,1.291744593999999893e+02,1.451611628000000032e+01
1.450000000000000000e+01,1.371698191000000122e+02,1.583338434000000028e+01
1.469999999999999929e+01,1.226859472000000011e+02,1.393303378999999964e+01
1.490000000000000036e+01,1.140794001000000009e+02,1.275001461999999997e+01
1.509999999999999964e+01,1.438249246999999968e+02,1.491587290000000010e+01
1.530000000000000071e+01,1.642001376999999991e+02,1.612695607999999936e+01
1.550000000000000000e+01,1.261201692000000065e+02,1.374700162000000070e+01
1.569999999999999929e+01,1.561519027999999878e+02,1.550348179999999942e+01
1.590000000000000036e+01,1.310340378999999871e+02,1.403982238000000038e+01
1.610000000000000142e+01,1.391900708000000009e+02,1.478927456000000085e+01
1.630000000000000071e+01,1.381038278999999989e+02,1.489683355000000020e+01
1.650000000000000000e+01,1.412642720999999995e+02,1.447323291999999917e+01
1.669999999999999929e+01,1.306870111000000065e+02,1.410405577000000044e+01
1.689999999999999858e+01,1.668926559999999881e+02,1.617966815000000125e+01
1.710000000000000142e+01,1.709550352999999916e+02,1.728882769000000152e+01
1.730000000000000071e+01,1.874659062000000063e+02,1.750948539999999909e+01
1.750000000000000000e+01,1.457551219000000060e+02,1.565982864999999968e+01
1.769999999999999929e+01,1.807916214999999909e+02,1.803788733000000022e+01
1.789999999999999858e+01,1.463317165999999929e+02,1.517154567999999948e+01
1.810000000000000142e+01,1.606345369000000005e+02,1.598772675000000021e+01
1.830000000000000071e+01,1.511597610000000032e+02,1.580923766999999991e+01
1.850000000000000000e+01,1.770928073000000040e+02,1.718553058999999905e+01
1.869999999999999929e+01,1.819243504000000087e+02,1.823852790999999840e+01
1.889999999999999858e+01,1.732333390999999949e+02,1.657543898999999854e+01
1.910000000000000142e+01,1.540760284000000127e+02,1.555763420999999980e+01
1.930000000000000071e+01,1.459314299000000119e+02,1.510367772999999936e+01
1.950000000000000000e+01,1.514493334999999945e+02,1.532714735999999967e+01
1.969999999999999929e+01,1.504725195999999983e+02,1.485006989000000033e+01
1.989999999999999858e+01,1.375991243999999938e+02,1.478922537999999953e+01
2.010000000000000142e+01,1.638411049999999989e+02,1.677459191000000160e+01
2.030000000000000071e+01,1.709148341000000073e+02,1.773480052000000029e+01
2.050000000000000000e+01,1.808836431000000005e+02,1.719646284999999963e+01
2.069999999999999929e+01,1.623177099000000112e+02,1.640206060999999949e+01
2.089999999999999858e+01,1.676935812000000112e+02,1.644200505999999962e+01
2.110000000000000142e+01,1.613904331999999897e+02,1.646087788999999901e+01
2.130000000000000071e+01,1.591951731000000052e+02,1.591837721999999999e+01
2.150000000000000000e+01,1.581269961000000137e+02,1.592703904000000037e+01
2.169999999999999929e+01,1.509562305999999978e+02,1.537680708000000074e+01
2.189999999999999858e+01,1.418638201999999922e+02,1.408130588999999944e+01
2.210000000000000142e+01,2.070794603999999879e+02,1.830467854000000116e+01
2.230000000000000071e+01,1.782217014000000006e+02,1.663258847000000173e+01
2.250000000000000000e+01,1.586984981999999889e+02,1.532958943000000041e+01
2.269999999999999929e+01,1.761840515000000096e+02,1.703703402000000011e+01
2.289999999999999858e+01,1.752650674999999865e+02,1.673821888000000158e+01
2.310000000000000142e+01,1.753572532000000024e+02,1.680261713000000157e+01
2.330000000000000071e+01,1.700333315000000027e+02,1.630663702000000015e+01
2.350000000000000000e+01,1.533536111999999889e+02,1.513542862999999983e+01
2.369999999999999929e+01,1.835300680000000000e+02,1.711889465999999871e+01
2.389999999999999858e+01,1.889200618000000134e+02,1.754240301000000102e+01
2.410000000000000142e+01,1.928825194000000067e+02,1.734578730000000135e+01
2.430000000000000071e+01,1.925378796999999906e+02,1.711004511000000150e+01
2.450000000000000000e+01,1.675292056000000116e+02,1.609770915000000002e+01
2.469999999999999929e+01,1.767922547000000009e+02,1.683230100000000107e+01
2.489999999999999858e+01,1.962905744999999911e+02,1.753863765999999913e+01
2.510000000000000142e+01,1.971775502000000131e+02,1.756802618000000038e+01
2.530000000000000071e+01,1.725398235000000113e+02,1.642587138000000024e+01
2.550000000000000000e+01,1.880421383000000048e+02,1.771952900000000142e+01
2.569999999999999929e+01,2.226259879000000126e+02,1.875342608000000055e+01
2.589999999999999858e+01,1.930533821999999873e+02,1.749242179999999891e+01
2.610000000000000142e+01,1.847333096000000126e+02,1.822017931999999973e+01
2.630000000000000071e+01,1.760723311000000137e+02,1.687931150000000002e+01
2.650000000000000000e+01,1.762947117999999875e+02,1.708342195999999902e+01
2.669999999999999929e+01,1.558862157000000082e+02,1.551866013000000066e+01
2.689999999999999858e+01,2.042608563999999944e+02,1.842738334999999950e+01
2.710000000000000142e+01,2.131701831999999968e+02,1.835290947000000017e+01
2.730000000000000071e+01,2.008191311999999868e+02,1.834812439999999967e+01
2.750000000000000000e+01,1.892900022999999976e+02,1.723458521999999959e+01
2.769999999999999929e+01,2.254885902000000044e+02,1.884343189999999879e+01
2.789999999999999858e+01,1.834564166000000114e+02,1.771396706999999893e+01
2.810000000000000142e+01,1.997621420000000114e+02,1.771166159999999934e+01
2.830000000000000071e+01,2.353220148000000052e+02,1.905231161000000029e+01
2.850000000000000000e+01,1.993058565999999985e+02,1.768511992000000177e+01
2.869999999999999929e+01,2.369139260999999976e+02,2.033436928000000066e+01
2.889999999999999858e+01,2.084023712000000046e+02,1.868443088000000074e+01
2.910000000000000142e+01,2.410050472000000070e+02,1.994345166000000091e+01
2.930000000000000071e+01,1.971094468999999947e+02,1.728021174999999943e+01
2.950000000000000000e+01,2.283819544000000121e+02,1.862628703000000030e+01
2.969999999999999929e+01,2.126052166000000057e+02,1.816701559999999915e+01
2.989999999999999858e+01,2.378102004000000136e+02,1.935779654999999977e+01
3.010000000000000142e+01,2.076890625999999997e+02,1.803685382999999831e+01
3.030000000000000071e+01,2.330455995000000087e+02,1.952402902000000040e+01
3.050000000000000000e+01,2.547205073000000084e+02,2.032179048000000066e+01
3.069999999999999929e+01,2.665128937999999721e+02,2.056453089000000034e+01
3.089999999999999858e+01,2.213523450000000139e+02,1.845522383999999860e+01
3.110000000000000142e+01,2.443889102999999920e+02,1.978871326000000153e+01
3.130000000000000071e+01,2.317963852000000031e+02,1.926599243000000072e+01
3.150000000000000000e+01,2.527345560999999918e+02,1.989998664000000161e+01
3.169999999999999929e+01,2.153354437000000132e+02,1.812836345999999921e+01
3.189999999999999858e+01,2.552100907999999890e+02,2.044086022000000114e+01
3.210000000000000142e+01,2.321948308000000054e+02,1.918318084999999940e+01
3.229999999999999716e+01,2.450477951999999959e+02,1.966580877999999899e+01
3.250000000000000000e+01,2.362631218999999874e+02,1.920699635000000072e+01
3.270000000000000284e+01,1.931713638999999887e+02,1.734716462000000092e+01
3.289999999999999858e+01,2.485812325999999928e+02,1.970158591999999942e+01
3.310000000000000142e+01,1.912396612999999945e+02,1.696110061999999985e+01
3.329999999999999716e+01,2.301588840000000005e+02,1.874273733000000064e+01
3.350000000000000000e+01,2.786216926999999828e+02,2.183536499999999947e+01
3.370000000000000284e+01,2.163143977999999947e+02,1.833335023000000064e+01
3.389999999999999858e+01,2.511541970000000106e+02,2.046806520999999890e+01
3.410000000000000142e+01,2.141802275999999949e+02,1.801348752000000175e+01
3.429999999999999716e+01,2.370368754000000138e+02,1.899461541000000153e+01
3.450000000000000000e+01,2.808211157999999728e+02,2.162443256999999974e+01
3.470000000000000284e+01,2.725259078999999929e+02,2.206761331999999953e+01
3.489999999999999858e+01,2.311576823999999988e+02,1.896845319999999901e+01
3.510000000000000142e+01,2.581709117999999989e+02,2.009199909999999889e+01
3.529999999999999716e+01,2.044278001000000131e+02,1.762826786999999840e+01
3.550000000000000000e+01,2.183239687999999887e+02,1.880505966999999856e+01
3.570000000000000284e+01,2.523826387000000011e+02,2.022929315000000017e+01
3.589999999999999858e+01,2.250187699999999893e+02,1.884815781000000001e+01
3.610000000000000142e+01,2.179492324999999937e+02,1.875742928000000020e+01
3.629999999999999716e+01,2.882092524999999910e+02,2.166408425999999920e+01
3.650000000000000000e+01,2.626431301000000076e+02,2.048765149999999835e+01
3.670000000000000284e+01,2.489083291999999972e+02,1.955286518000000129e+01
3.689999999999999858e+01,2.597960514000000103e+02,2.046687528000000000e+01
3.710000000000000142e+01,2.479436149000000000e+02,1.946926399999999902e+01
3.729999999999999716e+01,2.417313115999999980e+02,1.964992987999999841e+01
3.750000000000000000e+01,2.422595551000000000e+02,1.989035245999999901e+01
3.770000000000000284e+01,2.624174085000000218e+02,2.113243286999999881e+01
3.789999999999999858e+01,2.505150486000000001e+02,1.986188143000000039e+01
3.810000000000000142e+01,2.655374160000000074e+02,2.049057226000000043e+01
3.829999999999999716e+01,2.732530141999999955e+02,2.046979958000000011e+01
3.850000000000000000e+01,2.823526221000000191e+02,2.195200455000000161e+01
3.870000000000000284e+01,2.622559453000000076e+02,2.060598814000000090e+01
3.889999999999999858e+01,2.720300012999999808e+02,2.056348318999999947e+01
3.910000000000000142e+01,2.601466302000000042e+02,2.029851494000000045e+01
3.929999999999999716e+01,2.783895605000000160e+02,2.165687842000000174e+01
3.950000000000000000e+01,2.899802660999999944e+02,2.177670369000000150e+01
3.970000000000000284e+01,2.650610012000000211e+02,2.074750318999999976e+01
3.989999999999999858e+01,2.797323792999999910e+02,2.110060393999999917e+01
4.010000000000000142e+01,3.093501435000000015e+02,2.260896577000000107e+01
4.029999999999999716e+01,2.937832265000000120e+02,2.158566083999999918e+01
4.050000000000000000e+01,3.016248193000000128e+02,2.197125551999999971e+01
4.070000000000000284e+01,2.588346788999999717e+02,2.021561230000000009e+01
4.089999999999999858e+01,3.025712030000000254e+02,2.197563949999999977e+01
4.110000000000000142e+01,3.373579910000000268e+02,2.379874609000000163e+01
4.129999999999999716e+01,3.019837368999999967e+02,2.177779487999999830e+01
4.150000000000000000e+01,3.643446738000000096e+02,2.432050183999999859e+01
4.170000000000000284e+01,4.016856176000000005e+02,2.585168176000000173e+01
4.189999999999999858e+01,4.115353289000000245e+02,2.653449316000000024e+01
4.210000000000000142e+01,4.382989688000000115e+02,2.706286619000000115e+01
4.229999999999999716e+01,4.527698571999999899e+02,2.763123215999999971e+01
4.250000000000000000e+01,5.003734026999999855e+02,2.894813003000000151e+01
4.270000000000000284e+01,4.831577541999999994e+02,2.812839981000000122e+01
4.289999999999999858e+01,5.152227709999999661e+02,2.868338716999999960e+01
4.310000000000000142e+01,5.442680761000000302e+02,3.024614316999999986e+01
4.329999999999999716e+01,5.913682105000000320e+02,3.148922132999999945e+01
4.350000000000000000e+01,4.919729062999999769e+02,2.865437368999999990e+01
4.370000000000000284e+01,5.105557807000000139e+02,2.908959519000000071e+01
4.389999999999999858e+01,4.424454167999999754e+02,2.685179291000000035e+01
4.410000000000000142e+01,4.464184819000000175e+02,2.715399100999999860e+01
4.429999999999999716e+01,4.292188932000000250e+02,2.646391646000000009e+01
4.450000000000000000e+01,4.646563497000000211e+02,2.764895196000000155e+01
4.470000000000000284e+01,4.581007088999999723e+02,2.905327207999999928e+01
4.489999999999999858e+01,3.640010730000000194e+02,2.418856746000000157e+01
4.510000000000000142e+01,3.402393496999999911e+02,2.323301444999999887e+01
4.529999999999999716e+01,3.377397462999999789e+02,2.297180407999999829e+01
4.550000000000000000e+01,3.320090880999999854e+02,2.282495572999999922e+01
4.570000000000000284e+01,3.131684670000000210e+02,2.174851006000000098e+01
4.589999999999999858e+01,2.712030199999999809e+02,2.021430116999999882e+01
4.610000000000000142e+01,3.349792433000000074e+02,2.280631162999999972e+01
4.629999999999999716e+01,3.038295021000000133e+02,2.251509511000000074e+01
4.650000000000000000e+01,3.081373674000000165e+02,2.165106945999999866e+01
4.670000000000000284e+01,2.978419786000000045e+02,2.150042996000000173e+01
4.689999999999999858e+01,3.470187973999999826e+02,2.336306525999999906e+01
4.710000000000000142e+01,3.059640944000000218e+02,2.231900003000000154e+01
4.729999999999999716e+01,3.113237905999999953e+02,2.235647392999999994e+01
4.750000000000000000e+01,3.191707208999999921e+02,2.240842912000000098e+01
4.770000000000000284e+01,2.872876064000000156e+02,2.139520093000000145e+01
4.789999999999999858e+01,3.164457534000000010e+02,2.200772235999999893e+01
4.810000000000000142e+01,3.343965448000000151e+02,2.291971524999999943e+01
4.829999999999999716e+01,3.448310892999999737e+02,2.289443461000000113e+01
4.850000000000000000e+01,3.305362339999999790e+02,2.237700708999999932e+01
4.870000000000000284e+01,3.825627501000000166e+02,2.396839758999999859e+01
4.889999999999999858e+01,3.534098119999999881e+02,2.270673563000000073e+01
4.910000000000000142e+01,3.834273206999999957e+02,2.324571418000000023e+01
4.929999999999999716e+01,4.279048007000000098e+02,2.570564411000000149e+01
4.950000000000000000e+01,3.820805591000000163e+02,2.404501216999999968e+01
4.970000000000000284e+01,4.375000380999999834e+02,2.578019653000000133e+01
4.989999999999999858e+01,3.998451413999999886e+02,2.382999747999999940e+01
5.010000000000000142e+01,4.459719102000000248e+02,2.504750810000000172e+01
5.029999999999999716e+01,3.734058942999999999e+02,2.258580846999999991e+01
5.050000000000000000e+01,4.095345042000000149e+02,2.383437006999999852e+01
5.070000000000000284e+01,3.715915471000000139e+02,2.335011129999999824e+01
5.089999999999999858e+01,4.065194228999999950e+02,2.438497281000000072e+01
5.110000000000000142e+01,3.997416997000000265e+02,2.403738169000000013e+01
5.129999999999999716e+01,3.423319885999999883e+02,2.210599402000000069e+01
5.150000000000000000e+01,3.919716971999999942e+02,2.404989871000000079e+01
5.170000000000000284e+01,3.732810701000000222e+02,2.368306529999999910e+01
5.189999999999999858e+01,3.542844344999999748e+02,2.304885983000000138e+01
5.210000000000000142e+01,3.624044483000000128e+02,2.299163392999999900e+01
5.229999999999999716e+01,3.427619323999999779e+02,2.318430004000000011e+01
5.250000000000000000e+01,2.912882025999999769e+02,2.123499280000000056e+01
5.270000000000000284e+01,2.911771785999999906e+02,2.111430046999999988e+01
5.289999999999999858e+01,3.529137483999999745e+02,2.397281222000000156e+01
5.310000000000000142e+01,3.005263621999999941e+02,2.166457585999999935e+01
5.329999999999999716e+01,3.190228169999999750e+02,2.211362096999999949e+01
5.350000000000000000e+01,2.864504997999999887e+02,2.106867460999999864e+01
5.370000000000000284e+01,3.668229160000000206e+02,2.405242640000000165e+01
5.389999999999999858e+01,3.073577387000000272e+02,2.211088949000000170e+01
5.410000000000000142e+01,3.056000910000000204e+02,2.178878246000000019e+01
5.429999999999999716e+01,3.194861630999999988e+02,2.234111701000000139e+01
5.450000000000000000e+01,3.024264443999999799e+02,2.186398716000000064e+01
5.470000000000000284e+01,3.477930326000000036e+02,2.385233046000000101e+01
5.489999999999999858e+01,3.062977569999999901e+02,2.209387747999999974e+01
5.510000000000000142e+01,3.278097849999999767e+02,2.277978816999999978e+01
5.529999999999999716e+01,2.916059040000000095e+02,2.114950608999999915e+01
5.550000000000000000e+01,2.836392407999999818e+02,2.092544437000000102e+01
5.570000000000000284e+01,3.214232268000000090e+02,2.235365553000000105e+01
5.589999999999999858e+01,3.403742126999999869e+02,2.350822480000000070e+01
5.610000000000000142e+01,3.665019040000000246e+02,2.406992070000000083e+01
5.629999999999999716e+01,3.129442376999999738e+02,2.237953209000000143e+01
5.650000000000000000e+01,3.032962555999999950e+02,2.173551046000000042e+01
5.670000000000000284e+01,3.430525208000000248e+02,2.377831618000000091e+01
5.689999999999999858e+01,2.918533823999999868e+02,2.118691919999999840e+01
5.710000000000000142e+01,3.013889649999999847e+02,2.131588946000000107e+01
5.729999999999999716e+01,3.208991710999999896e+02,2.248315257999999872e+01
5.750000000000000000e+01,3.474197826000000191e+02,2.328134392999999847e+01
5.770000000000000284e+01,3.508971606000000065e+02,2.388779729000000174e+01
5.789999999999999858e+01,3.368221214000000145e+02,2.324289939999999888e+01
5.810000000000000142e+01,3.252166301999999973e+02,2.261703161000000151e+01
5.829999999999999716e+01,3.446277430000000095e+02,2.355673739999999938e+01
5.850000000000000000e+01,3.169052219000000150e+02,2.207802291000000139e+01
5.870000000000000284e+01,3.466274283999999852e+02,2.321360217999999875e+01
5.889999999999999858e+01,3.745608283000000256e+02,2.454092673999999974e+01
5.910000000000000142e+01,3.602478800999999748e+02,2.401848142000000053e+01
5.929999999999999716e+01,3.395782312000000047e+02,2.365108067999999975e+01
5.950000000000000000e+01,3.485202927000000273e+02,2.418639767999999890e+01
5.970000000000000284e+01,3.562837468999999828e+02,2.380116710000000069e+01
5.989999999999999858e+01,3.374374265999999807e+02,2.303381883999999857e+01
6.010000000000000142e+01,3.475802697999999964e+02,2.355196809999999985e+01
6.029999999999999716e+01,2.998629371000000106e+02,2.176789047000000110e+01
6.050000000000000000e+01,3.180521668000000091e+02,2.246709205000000154e+01
6.070000000000000284e+01,3.303150019000000270e+02,2.311894664000000077e+01
6.089999999999999858e+01,3.117137730000000033e+02,2.202346262000000010e+01
6.110000000000000142e+01,3.333906309999999849e+02,2.320953358999999949e+01
6.129999999999999716e+01,3.478612623000000212e+02,2.378221621999999869e+01
6.150000000000000000e+01,3.528853017000000136e+02,2.388324807000000050e+01
6.170000000000000284e+01,3.421170281999999929e+02,2.329344157999999965e+01
6.189999999999999858e+01,3.659399328000000082e+02,2.436306006999999951e+01
6.210000000000000142e+01,3.358988997999999810e+02,2.313928684000000047e+01
6.229999999999999716e+01,3.258808682999999746e+02,2.277775680999999963e+01
6.250000000000000000e+01,3.589242456000000061e+02,2.396377868000000078e+01
6.270000000000000284e+01,3.254577378999999837e+02,2.278838411999999991e+01
6.289999999999999858e+01,3.335131549000000177e+02,2.262623871999999992e+01
6.310000000000000142e+01,3.593824263999999857e+02,2.441457944000000069e+01
6.329999999999999716e+01,3.450947196999999846e+02,2.295084645000000023e+01
6.350000000000000000e+01,3.288960655000000202e+02,2.281181211000000175e+01
6.370000000000000284e+01,3.778065781000000243e+02,2.430032900000000140e+01
6.389999999999999858e+01,3.524492789999999900e+02,2.404052739000000116e+01
6.409999999999999432e+01,3.405614810000000148e+02,2.320390044000000174e+01
6.429999999999999716e+01,2.921059882000000130e+02,2.096273572999999857e+01
6.450000000000000000e+01,3.539684679999999730e+02,2.383361074000000102e+01
6.470000000000000284e+01,3.440181299000000195e+02,2.353953664999999873e+01
6.490000000000000568e+01,3.836915566000000126e+02,2.501748041999999828e+01
6.509999999999999432e+01,3.427032039000000054e+02,2.349180220999999946e+01
6.529999999999999716e+01,3.494576756000000159e+02,2.353455999000000176e+01
6.550000000000000000e+01,3.076467976000000135e+02,2.189712257000000051e+01
6.570000000000000284e+01,3.898065971999999988e+02,2.492801607000000175e+01
6.590000000000000568e+01,3.834011401999999862e+02,2.477429237000000128e+01
6.609999999999999432e+01,3.311601152999999726e+02,2.286245673000000167e+01
6.629999999999999716e+01,3.682689536999999973e+02,2.425806309000000027e+01
6.650000000000000000e+01,3.336990872999999738e+02,2.288699859000000103e+01
6.670000000000000284e+01,3.942800335000000018e+02,2.547564868999999987e+01
6.690000000000000568e+01,3.500699041999999963e+02,2.381381236000000001e+01
6.709999999999999432e+01,3.239254116999999837e+02,2.228965970000000141e+01
6.729999999999999716e+01,3.513988577000000078e+02,2.332748721000000103e+01
6.750000000000000000e+01,3.340230856000000017e+02,2.305759473999999898e+01
6.770000000000000284e+01,3.507258312999999816e+02,2.319574631000000053e+01
6.790000000000000568e+01,3.641410281000000282e+02,2.372379370999999892e+01
6.809999999999999432e+01,3.676021546000000058e+02,2.440208432000000016e+01
6.829999999999999716e+01,3.649371171999999888e+02,2.500179482000000064e+01
6.850000000000000000e+01,3.543669995000000199e+02,2.342139373999999918e+01
6.870000000000000284e+01,3.624749519999999734e+02,2.344648096999999964e+01
6.890000000000000568e+01,3.673099234000000024e+02,2.361152818000000053e+01
6.909999999999999432e+01,3.508400545000000079e+02,2.359139949000000058e+01
6.929999999999999716e+01,3.393098999000000049e+02,2.318165435999999957e+01
6.950000000000000000e+01,3.548893074000000070e+02,2.360980522999999920e+01
6.970000000000000284e+01,4.054029790000000162e+02,2.542620435999999984e+01
6.990000000000000568e+01,3.732041070000000218e+02,2.429673826000000147e+01
7.009999999999999432e+01,3.677641342000000009e+02,2.421092888000000087e+01
7.029999999999999716e+01,4.067873387000000207e+02,2.527586943000000019e+01
7.050000000000000000e+01,3.815348081999999863e+02,2.473304410000000075e+01
7.070000000000000284e+01,4.030263497999999913e+02,2.552251748000000120e+01
7.090000000000000568e+01,3.710533052999999768e+02,2.400322230000000090e+01
7.109999999999999432e+01,3.926449170000000208e+02,2.517601181999999937e+01
7.129999999999999716e+01,4.212983080999999856e+02,2.572528275999999892e+01
7.150000000000000000e+01,4.194673950999999761e+02,2.631638942000000014e+01
7.170000000000000284e+01,3.935408856000000242e+02,2.468265322999999967e+01
7.190000000000000568e+01,4.331796362000000045e+02,2.637035343000000154e+01
7.209999999999999432e+01,4.273015778999999839e+02,2.606706986000000015e+01
7.229999999999999716e+01,3.871161412000000155e+02,2.449904699000000008e+01
7.250000000000000000e+01,4.716262848000000076e+02,2.789565354999999869e+01
7.270000000000000284e+01,4.531658575999999812e+02,2.672161438999999916e+01
7.290000000000000568e+01,4.634544414000000074e+02,2.711259631000000070e+01
7.309999999999999432e+01,4.404294376999999940e+02,2.634674809999999923e+01
7.329999999999999716e+01,4.595934093000000189e+02,2.708617270999999960e+01
7.350000000000000000e+01,4.557740737999999965e+02,2.693769099000000011e+01
7.370000000000000284e+01,4.692884910000000218e+02,2.703757974000000175e+01
7.390000000000000568e+01,4.781731983000000241e+02,2.773036481999999836e+01
7.409999999999999432e+01,4.927004911999999877e+02,2.840969645999999926e+01
7.429999999999999716e+01,4.659639109999999960e+02,2.698594121000000001e+01
7.450000000000000000e+01,5.132776129999999739e+02,2.905492183999999867e+01
7.470000000000000284e+01,5.303017975999999862e+02,2.914375336999999888e+01
7.490000000000000568e+01,4.910402336999999875e+02,2.813689081000000058e+01
7.509999999999999432e+01,4.619043591999999876e+02,2.706019351999999856e+01
7.529999999999999716e+01,4.829775045000000091e+02,2.760305749000000120e+01
7.550000000000000000e+01,4.349101608999999939e+02,2.617334900000000175e+01
7.570000000000000284e+01,4.416463254000000234e+02,2.653640734000000023e+01
7.590000000000000568e+01,3.863864947000000143e+02,2.480412498000000099e+01
7.609999999999999432e+01,4.013491137999999978e+02,2.570075106000000176e+01
7.629999999999999716e+01,4.062170294000000013e+02,2.584817677999999930e+01
7.650000000000000000e+01,4.029359539000000154e+02,2.463570560000000143e+01
7.670000000000000284e+01,4.130977955999999836e+02,2.540442466000000010e+01
7.690000000000000568e+01,3.784892980999999850e+02,2.451830195999999873e+01
7.709999999999999432e+01,4.252052838000000179e+02,2.590383637000000050e+01
7.729999999999999716e+01,3.985864103000000114e+02,2.513350937999999957e+01
7.750000000000000000e+01,4.054636303999999996e+02,2.597521266000000040e+01
7.770000000000000284e+01,3.934389812000000006e+02,2.526838835999999944e+01
7.790000000000000568e+01,4.263014385999999831e+02,2.627947780999999949e+01
7.809999999999999432e+01,3.737886366999999836e+02,2.459072895999999986e+01
7.829999999999999716e+01,3.573526150999999800e+02,2.360081905999999918e+01
7.850000000000000000e+01,3.589689897999999744e+02,2.365232651000000175e+01
7.870000000000000284e+01,3.865954221000000075e+02,2.471826116000000084e+01
7.890000000000000568e+01,4.195535358999999858e+02,2.616675813999999889e+01
7.909999999999999432e+01,3.527828835999999910e+02,2.379551288000000042e+01
7.929999999999999716e+01,3.433700324999999793e+02,2.307019530999999901e+01
7.950000000000000000e+01,3.762487575000000106e+02,2.460169070999999974e+01
7.970000000000000284e+01,3.525946094000000244e+02,2.319698035000000047e+01
7.990000000000000568e+01,3.655039105999999833e+02,2.431205201999999943e+01
8.009999999999999432e+01,4.116460094999999910e+02,2.571025832999999849e+01
8.029999999999999716e+01,3.900617894999999749e+02,2.572417306999999909e+01
8.050000000000000000e+01,3.517189372000000276e+02,2.352232989000000174e+01
8.070000000000000284e+01,3.615505446999999890e+02,2.364304038999999946e+01
8.090000000000000568e+01,4.050146641000000045e+02,2.589884019000000137e+01
8.109999999999999432e+01,3.756728069999999775e+02,2.427967230000000143e+01
8.129999999999999716e+01,3.743404080999999906e+02,2.417031181000000117e+01
8.150000000000000000e+01,4.039467012000000068e+02,2.550578104999999951e+01
8.170000000000000284e+01,3.903515113000000269e+02,2.482870717999999854e+01
8.190000000000000568e+01,3.714896332999999800e+02,2.437288991999999865e+01
8.209999999999999432e+01,4.258797344999999837e+02,2.613679424000000040e+01
8.229999999999999716e+01,4.071040985999999862e+02,2.528246451000000050e+01
8.250000000000000000e+01,4.139968077999999991e+02,2.607664691000000090e+01
8.270000000000000284e+01,3.584422852999999805e+02,2.397563420999999906e+01
8.290000000000000568e+01,3.777224431000000209e+02,2.462010404000000108e+01
8.309999999999999432e+01,3.711611871999999721e+02,2.364012744000000055e+01
8.329999999999999716e+01,3.420187412999999879e+02,2.313150557000000163e+01
8.350000000000000000e+01,3.868822710000000029e+02,2.481315234999999930e+01
8.370000000000000284e+01,4.244320233000000258e+02,2.664504485000000145e+01
8.390000000000000568e+01,4.431080857000000037e+02,2.660895238000000163e+01
8.409999999999999432e+01,3.852409812999999872e+02,2.485638841000000099e+01
8.429999999999999716e+01,4.118645897000000105e+02,2.603777785000000122e+01
8.450000000000000000e+01,3.707806368000000248e+02,2.458523376000000127e+01
8.470000000000000284e+01,4.350062004999999772e+02,2.689581070999999923e+01
8.490000000000000568e+01,3.926464768000000163e+02,2.581768525000000025e+01
8.509999999999999432e+01,4.516740811000000235e+02,2.782895165000000048e+01
8.529999999999999716e+01,4.490462388999999916e+02,2.710960839000000178e+01
8.550000000000000000e+01,4.208632288000000017e+02,2.749656381000000138e+01
8.570000000000000284e+01,4.005986381999999821e+02,2.602553509999999903e+01
8.590000000000000568e+01,4.707389759999999796e+02,2.891013520999999997e+01
8.609999999999999432e+01,4.683783053999999879e+02,2.836586072000000058e+01
8.629999999999999716e+01,4.479173114000000169e+02,2.825387024999999852e+01
8.650000000000000000e+01,3.775885771000000091e+02,2.552925268999999986e+01
8.670000000000000284e+01,4.087962231000000202e+02,2.623692189999999869e+01
8.690000000000000568e+01,4.580810430999999880e+02,2.813409727999999888e+01
8.709999999999999432e+01,4.697480550999999878e+02,2.951348461999999984e+01
8.729999999999999716e+01,4.910718550000000278e+02,2.959478069000000033e+01
8.750000000000000000e+01,5.121184439999999540e+02,3.027115086999999960e+01
8.770000000000000284e+01,5.514279401000000007e+02,3.372725926999999757e+01
8.790000000000000568e+01,4.638914730999999847e+02,2.906495423000000144e+01
8.809999999999999432e+01,4.511688914999999724e+02,2.916699391999999946e+01
8.829999999999999716e+01,4.663108566999999880e+02,2.918145890999999992e+01
8.850000000000000000e+01,5.329667174999999588e+02,3.132089609999999880e+01
8.870000000000000284e+01,5.787267964999999776e+02,3.298883802000000287e+01
8.890000000000000568e+01,5.052566831999999977e+02,3.086644257000000025e+01
8.909999999999999432e+01,4.628294525000000021e+02,2.892458016000000143e+01
8.929999999999999716e+01,5.176821971000000531e+02,3.160573275999999865e+01
8.950000000000000000e+01,5.371592888999999786e+02,3.159546850999999990e+01
8.970000000000000284e+01,5.079927074999999945e+02,3.039211016000000143e+01
8.990000000000000568e+01,5.132524621999999681e+02,3.018565466000000086e+01
9.009999999999999432e+01,4.973884739999999738e+02,3.090121554999999987e+01
9.029999999999999716e+01,5.083606877999999938e+02,3.036874484000000152e+01
9.050000000000000000e+01,4.548216163000000165e+02,2.847325273999999951e+01
9.070000000000000284e+01,5.042957989000000225e+02,3.001496548000000075e+01
9.090000000000000568e+01,4.943175939000000199e+02,2.957779774000000117e+01
9.109999999999999432e+01,5.402864779000000226e+02,3.131299848999999824e+01
9.129999999999999716e+01,4.918811039000000278e+02,2.883172122999999942e+01
9.150000000000000000e+01,4.948964363000000048e+02,2.994468459000000138e+01
9.170000000000000284e+01,4.684302495000000022e+02,2.796121666999999889e+01
9.190000000000000568e+01,5.527969781000000467e+02,3.192391483999999835e+01
9.209999999999999432e+01,4.854309895999999753e+02,2.911198847000000001e+01
9.229999999999999716e+01,5.055210513000000105e+02,2.964600569999999991e+01
9.250000000000000000e+01,5.203471643000000313e+02,2.988114351999999840e+01
9.270000000000000284e+01,4.873204524999999876e+02,2.879251744000000102e+01
9.290000000000000568e+01,4.656667042999999921e+02,2.783237590999999966e+01
9.309999999999999432e+01,5.107709184999999934e+02,2.916343408999999909e+01
9.329999999999999716e+01,4.836118829999999775e+02,2.846132457999999943e+01
9.350000000000000000e+01,5.620392801000000418e+02,3.104588928000000081e+01
9.370000000000000284e+01,4.325906294000000116e+02,2.631444528999999832e+01
9.390000000000000568e+01,4.960788039999999910e+02,2.894169013999999862e+01
9.409999999999999432e+01,4.712625209000000268e+02,2.762408811999999969e+01
9.429999999999999716e+01,4.927439261999999758e+02,2.791738211999999919e+01
9.450000000000000000e+01,4.581729070999999749e+02,2.694364533999999978e+01
9.470000000000000284e+01,4.379413422000000082e+02,2.572595201000000031e+01
9.490000000000000568e+01,4.220712626000000114e+02,2.518101120000000037e+01
9.509999999999999432e+01,4.063032671000000278e+02,2.511622029000000111e+01
9.529999999999999716e+01,4.738372992000000181e+02,2.700404226999999935e+01
9.550000000000000000e+01,4.535007841999999982e+02,2.722100320999999923e+01
9.570000000000000284e+01,3.974141116000000125e+02,2.499910072000000127e+01
9.590000000000000568e+01,4.347449589999999944e+02,2.617405581999999953e+01
9.609999999999999432e+01,3.766774245999999948e+02,2.416646307999999976e+01
9.629999999999999716e+01,4.338085566999999969e+02,2.605273560999999916e+01
9.650000000000000000e+01,4.253077470000000062e+02,2.516370832000000135e+01
9.670000000000000284e+01,4.512596010999999976e+02,2.660232440000000054e+01
9.690000000000000568e+01,3.669350709000000279e+02,2.323531179000000080e+01
9.709999999999999432e+01,4.362238029000000097e+02,2.616317019999999971e+01
9.729999999999999716e+01,4.388831632999999783e+02,2.633609945999999979e+01
9.750000000000000000e+01,4.497469988999999941e+02,2.700620462999999916e+01
9.770000000000000284e+01,4.205310367999999812e+02,2.555611245000000054e+01
9.790000000000000568e+01,4.235799278000000072e+02,2.571869887000000077e+01
9.809999999999999432e+01,3.788236762999999883e+02,2.415481782999999893e+01
9.829999999999999716e+01,3.889928400000000011e+02,2.433311528999999851e+01
9.850000000000000000e+01,4.624656122999999752e+02,2.715605067999999989e+01
9.870000000000000284e+01,4.146387644000000137e+02,2.598909494999999836e+01
9.890000000000000568e+01,3.775161587000000054e+02,2.479994796000000079e+01
9.909999999999999432e+01,4.129605255000000170e+02,2.496593186000000131e+01
9.929999999999999716e+01,3.765671821000000250e+02,2.449900004999999936e+01
9.950000000000000000e+01,4.430833483000000115e+02,2.632893334999999979e+01
9.970000000000000284e+01,4.473875846000000251e+02,2.691153266999999971e+01
9.990000000000000568e+01,4.473289523999999915e+02,2.644886424999999974e+01
