x_axis,Intensity,Error
1.009999999999999964e+01,6.904554437999999905e+00,8.171394896000000463e-01
1.030000000000000071e+01,6.431839343000000042e+00,7.758747601000000049e-01
1.050000000000000000e+01,6.434141887000000004e+00,7.530643174000000162e-01
1.069999999999999929e+01,8.293167728000000238e+00,8.713152690000000034e-01
1.090000000000000036e+01,8.224373303000000135e+00,8.810111980000000509e-01
1.109999999999999964e+01,7.547449238999999643e+00,8.447182796000000105e-01
1.130000000000000071e+01,1.243482179000000087e+01,1.148999353000000001e+00
1.150000000000000000e+01,1.269163256999999945e+01,1.113155901000000059e+00
1.169999999999999929e+01,1.685626066000000023e+01,1.332297979000000021e+00
1.190000000000000036e+01,2.082234949000000057e+01,1.527636935000000085e+00
1.209999999999999964e+01,2.172805709000000007e+01,1.649811123000000102e+00
1.230000000000000071e+01,1.553073402000000058e+01,1.266440902999999896e+00
1.250000000000000000e+01,8.149150470000000368e+00,8.172937061999999697e-01
1.269999999999999929e+01,8.991644931999999812e+00,9.020130205999999928e-01
1.290000000000000036e+01,8.060713147999999606e+00,8.570451860000000144e-01
1.309999999999999964e+01,1.039153658999999941e+01,9.961819626000000261e-01
1.330000000000000071e+01,9.714031272999999800e+00,9.155111910000000019e-01
1.350000000000000000e+01,1.247503784999999965e+01,1.046080353000000018e+00
1.369999999999999929e+01,1.391242805999999987e+01,1.119048231000000060e+00
1.390000000000000036e+01,1.625633768999999873e+01,1.191432233000000007e+00
1.409999999999999964e+01,1.448028509999999969e+01,1.141952182999999899e+00
1.430000000000000071e+01,1.031893675999999971e+01,9.408168408999999510e-01
1.450000000000000000e+01,8.089468364000000022e+00,8.371749775000000282e-01
1.469999999999999929e+01,8.061709922000000361e+00,8.463179127000000079e-01
1.490000000000000036e+01,9.044317287000000150e+00,9.337520676999999658e-01
1.509999999999999964e+01,9.371370087000000737e+00,9.587889254000000472e-01
1.530000000000000071e+01,7.450056577999999874e+00,8.076272562999999849e-01
1.550000000000000000e+01,8.766735984000000315e+00,8.918764611999999703e-01
1.569999999999999929e+01,8.520574697000000697e+00,8.800965128000000082e-01
1.590000000000000036e+01,7.884060660000000276e+00,8.502522589000000020e-01
1.610000000000000142e+01,8.540464947000000251e+00,8.704834541999999509e-01
1.630000000000000071e+01,8.638826119000000858e+00,9.051703902000000079e-01
1.650000000000000000e+01,8.413545680000000360e+00,8.655572379999999511e-01
1.669999999999999929e+01,8.668795155999999835e+00,8.924449069000000012e-01
1.689999999999999858e+01,8.714734777000000321e+00,9.030550498999999620e-01
1.710000000000000142e+01,8.907009928000000798e+00,9.422665068000000144e-01
1.730000000000000071e+01,8.008068885000000137e+00,8.477805682000000287e-01
1.750000000000000000e+01,9.026049397999999613e+00,9.650590176000000131e-01
1.769999999999999929e+01,9.936801975999999925e+00,9.555028917000000233e-01
1.789999999999999858e+01,7.246528324999999882e+00,7.907996432999999659e-01
1.810000000000000142e+01,7.772216035999999661e+00,8.307863157999999526e-01
1.830000000000000071e+01,8.417566169000000542e+00,8.844924049000000288e-01
1.850000000000000000e+01,1.244300800000000073e+01,1.092657172000000010e+00
1.869999999999999929e+01,9.404652640000000119e+00,9.377273591000000463e-01
1.889999999999999858e+01,1.152357793000000008e+01,1.060777016999999933e+00
1.910000000000000142e+01,1.286011721999999935e+01,1.092146942999999926e+00
1.930000000000000071e+01,1.457914242999999921e+01,1.182635813000000091e+00
1.950000000000000000e+01,1.605242119000000045e+01,1.291766428999999938e+00
1.969999999999999929e+01,1.578926975999999982e+01,1.291093024000000034e+00
1.989999999999999858e+01,1.556115772999999969e+01,1.262863743999999899e+00
2.010000000000000142e+01,1.135807609000000085e+01,9.795505131999999726e-01
2.030000000000000071e+01,8.392919080000000420e+00,8.295130929999999791e-01
2.050000000000000000e+01,1.030205480999999956e+01,9.971195831000000398e-01
2.069999999999999929e+01,1.048415716999999958e+01,1.001980764000000024e+00
2.089999999999999858e+01,9.777018527999999264e+00,9.334133406000000299e-01
2.110000000000000142e+01,1.101016040000000018e+01,9.961247800000000430e-01
2.130000000000000071e+01,9.408133492999999348e+00,9.407785260000000038e-01
2.150000000000000000e+01,1.006518162999999966e+01,9.416604644999999607e-01
2.169999999999999929e+01,1.092089348000000015e+01,1.013472450000000080e+00
2.189999999999999858e+01,1.034321478999999933e+01,9.589136002000000492e-01
2.210000000000000142e+01,1.055652691000000054e+01,9.899636450000000032e-01
2.230000000000000071e+01,1.079700549000000009e+01,1.065356455999999952e+00
2.250000000000000000e+01,1.382310803000000021e+01,1.228548763000000044e+00
2.269999999999999929e+01,1.424147244999999984e+01,1.339879991999999964e+00
2.289999999999999858e+01,2.365684127000000103e+01,1.897460058000000060e+00
2.310000000000000142e+01,2.219051606000000021e+01,1.877894428999999921e+00
2.330000000000000071e+01,2.531006524000000013e+01,1.993236215999999894e+00
2.350000000000000000e+01,1.670852057999999829e+01,1.349930827999999972e+00
2.369999999999999929e+01,1.430744052999999916e+01,1.122437828000000026e+00
2.389999999999999858e+01,1.258908375000000035e+01,1.004142424999999950e+00
2.410000000000000142e+01,1.472890517000000088e+01,1.107199620000000051e+00
2.430000000000000071e+01,1.508699284999999968e+01,1.139286607999999923e+00
2.450000000000000000e+01,1.196073924000000055e+01,9.816805888999999841e-01
2.469999999999999929e+01,9.683031292000000789e+00,8.940390580000000531e-01
2.489999999999999858e+01,1.084531085000000061e+01,9.938951403000000351e-01
2.510000000000000142e+01,1.069361055999999977e+01,9.999681420999999570e-01
2.530000000000000071e+01,9.528354007000000792e+00,9.223606570000000282e-01
2.550000000000000000e+01,1.373256605999999991e+01,1.154824805999999926e+00
2.569999999999999929e+01,1.113685934000000088e+01,9.942446131000000076e-01
2.589999999999999858e+01,1.081567317000000017e+01,9.774138303999999611e-01
2.610000000000000142e+01,1.074251117000000022e+01,1.002047686999999909e+00
2.630000000000000071e+01,1.231717163999999975e+01,1.073297315000000030e+00
2.650000000000000000e+01,1.097918847999999947e+01,1.002540326000000093e+00
2.669999999999999929e+01,1.327415741000000082e+01,1.107640468999999905e+00
2.689999999999999858e+01,1.303822393999999996e+01,1.082320034999999958e+00
2.710000000000000142e+01,1.252842051000000012e+01,1.073037266999999906e+00
2.730000000000000071e+01,1.237617185999999947e+01,1.074582410999999960e+00
2.750000000000000000e+01,1.267391426000000010e+01,1.065684056999999907e+00
2.769999999999999929e+01,1.334991770000000066e+01,1.038003607999999911e+00
2.789999999999999858e+01,1.340245640000000016e+01,1.066618239000000079e+00
2.810000000000000142e+01,1.549673811999999984e+01,1.149013371999999977e+00
2.830000000000000071e+01,1.299035723000000075e+01,1.050277246000000053e+00
2.850000000000000000e+01,1.252842513000000046e+01,1.071049984000000066e+00
2.869999999999999929e+01,1.209887690000000049e+01,1.035581279000000077e+00
2.889999999999999858e+01,1.177113677000000003e+01,1.048860939000000103e+00
2.910000000000000142e+01,1.222878241999999993e+01,1.071249485999999917e+00
2.930000000000000071e+01,1.192735648999999931e+01,1.022875243999999961e+00
2.950000000000000000e+01,1.118839385999999969e+01,1.049536363999999944e+00
2.969999999999999929e+01,1.127783834999999968e+01,1.043032922000000084e+00
2.989999999999999858e+01,1.156021093999999927e+01,1.024656537000000034e+00
3.010000000000000142e+01,1.204419953999999926e+01,1.059479918999999937e+00
3.030000000000000071e+01,1.851258351999999974e+01,1.415845008000000016e+00
3.050000000000000000e+01,1.653873902999999856e+01,1.323269183999999932e+00
3.069999999999999929e+01,1.887726261999999977e+01,1.454593771999999952e+00
3.089999999999999858e+01,1.910262884000000128e+01,1.404883002999999908e+00
3.110000000000000142e+01,1.981183649000000102e+01,1.483318028000000011e+00
3.130000000000000071e+01,2.101765918999999982e+01,1.562356228000000069e+00
3.150000000000000000e+01,1.916394322000000017e+01,1.477772520999999895e+00
3.169999999999999929e+01,1.807987974999999992e+01,1.336125114999999974e+00
3.189999999999999858e+01,1.622084672000000083e+01,1.255822954999999963e+00
3.210000000000000142e+01,1.123144384000000073e+01,1.012779376999999981e+00
3.229999999999999716e+01,1.439673276999999985e+01,1.153147111000000002e+00
3.250000000000000000e+01,1.433590511000000056e+01,1.178488565999999960e+00
3.270000000000000284e+01,1.197567938999999981e+01,1.077231819000000090e+00
3.289999999999999858e+01,1.316456426000000057e+01,1.094544366000000046e+00
3.310000000000000142e+01,1.318656559999999978e+01,1.117770032999999996e+00
3.329999999999999716e+01,1.455915141999999918e+01,1.154803642999999935e+00
3.350000000000000000e+01,1.441028698999999946e+01,1.162453648999999922e+00
3.370000000000000284e+01,1.353980705000000029e+01,1.100814407999999966e+00
3.389999999999999858e+01,1.472700867000000002e+01,1.149924750000000051e+00
3.410000000000000142e+01,1.580810651000000000e+01,1.242392485000000102e+00
3.429999999999999716e+01,1.751025435000000030e+01,1.319018398999999953e+00
3.450000000000000000e+01,2.124542317999999952e+01,1.503895961000000003e+00
3.470000000000000284e+01,1.828851442999999932e+01,1.353369438999999952e+00
3.489999999999999858e+01,1.479406063000000060e+01,1.216610253000000030e+00
3.510000000000000142e+01,1.363941696999999920e+01,1.092680231999999974e+00
3.529999999999999716e+01,1.489508799999999944e+01,1.183130819999999916e+00
3.550000000000000000e+01,1.375034723999999997e+01,1.133323255999999946e+00
3.570000000000000284e+01,1.531790239999999947e+01,1.170261392000000011e+00
3.589999999999999858e+01,1.294630601999999975e+01,1.109314075999999982e+00
3.610000000000000142e+01,1.687476428000000084e+01,1.233647664000000033e+00
3.629999999999999716e+01,1.872117734000000056e+01,1.317217727000000060e+00
3.650000000000000000e+01,2.075783261999999851e+01,1.418374019999999902e+00
3.670000000000000284e+01,2.339708070000000006e+01,1.477622535000000070e+00
3.689999999999999858e+01,1.737755166999999901e+01,1.281260132999999968e+00
3.710000000000000142e+01,1.908517867999999851e+01,1.321944460000000099e+00
3.729999999999999716e+01,1.648203245999999922e+01,1.246327895000000074e+00
3.750000000000000000e+01,1.592652599000000002e+01,1.197594360999999941e+00
3.770000000000000284e+01,1.472620299000000088e+01,1.164678075000000090e+00
3.789999999999999858e+01,1.287485513999999931e+01,1.061807839999999947e+00
3.810000000000000142e+01,1.412043646999999957e+01,1.110693786999999988e+00
3.829999999999999716e+01,1.421259481999999963e+01,1.160449435000000085e+00
3.850000000000000000e+01,1.560898234999999978e+01,1.212757698999999967e+00
3.870000000000000284e+01,1.233133233000000040e+01,1.029318728000000016e+00
3.889999999999999858e+01,1.517610301999999933e+01,1.191520056999999966e+00
3.910000000000000142e+01,1.439003173000000046e+01,1.150251823000000062e+00
3.929999999999999716e+01,1.556287604999999985e+01,1.176838108999999966e+00
3.950000000000000000e+01,1.635306651000000144e+01,1.185713537000000040e+00
3.970000000000000284e+01,1.724231822999999864e+01,1.228374520000000025e+00
3.989999999999999858e+01,1.517125644000000051e+01,1.148728097000000004e+00
4.010000000000000142e+01,1.591244599999999920e+01,1.198105042999999981e+00
4.029999999999999716e+01,1.692209476000000024e+01,1.260925424000000072e+00
4.050000000000000000e+01,1.687032059999999944e+01,1.237058087000000084e+00
4.070000000000000284e+01,1.589244440999999952e+01,1.193455479999999902e+00
4.089999999999999858e+01,1.673169050999999996e+01,1.224204864000000059e+00
4.110000000000000142e+01,1.410128195999999967e+01,1.127222194000000011e+00
4.129999999999999716e+01,1.490113249000000017e+01,1.250186503999999976e+00
4.150000000000000000e+01,1.601402597999999955e+01,1.267647014000000016e+00
4.170000000000000284e+01,2.049871200000000115e+01,1.495904201000000100e+00
4.189999999999999858e+01,2.308949970000000107e+01,1.756554568999999955e+00
4.210000000000000142e+01,2.386235704999999996e+01,1.799688981999999937e+00
4.229999999999999716e+01,2.629968129999999960e+01,1.747655870000000000e+00
4.250000000000000000e+01,2.049646077999999960e+01,1.463472268000000076e+00
4.270000000000000284e+01,1.928181367999999907e+01,1.326174618000000027e+00
4.289999999999999858e+01,2.029609157999999880e+01,1.394288501999999985e+00
4.310000000000000142e+01,1.758206857000000056e+01,1.242134445000000031e+00
4.329999999999999716e+01,1.527414364000000013e+01,1.154474205999999947e+00
4.350000000000000000e+01,1.594464600000000054e+01,1.196836803000000060e+00
4.370000000000000284e+01,1.905918562000000094e+01,1.304259038000000093e+00
4.389999999999999858e+01,1.642168604000000087e+01,1.231137877000000103e+00
4.410000000000000142e+01,1.635774466000000160e+01,1.215685391000000060e+00
4.429999999999999716e+01,1.920325340999999852e+01,1.335606552000000002e+00
4.450000000000000000e+01,1.723308116000000112e+01,1.269542060000000028e+00
4.470000000000000284e+01,1.871073127000000014e+01,1.300148757000000099e+00
4.489999999999999858e+01,1.902841323000000173e+01,1.306115842999999943e+00
4.510000000000000142e+01,2.109668904000000111e+01,1.366265765999999937e+00
4.529999999999999716e+01,2.068243452999999832e+01,1.402211722000000105e+00
4.550000000000000000e+01,1.784170523999999958e+01,1.288073510000000033e+00
4.570000000000000284e+01,1.752557872999999944e+01,1.276972022000000040e+00
4.589999999999999858e+01,1.681601115999999863e+01,1.230178666000000032e+00
4.610000000000000142e+01,1.873257369999999966e+01,1.315492926999999979e+00
4.629999999999999716e+01,1.777404346999999873e+01,1.272063908000000021e+00
4.650000000000000000e+01,1.793283163999999985e+01,1.291654328999999990e+00
4.670000000000000284e+01,1.941080515000000162e+01,1.329250966000000034e+00
4.689999999999999858e+01,2.171817838000000123e+01,1.428256372000000107e+00
4.710000000000000142e+01,1.991695943999999940e+01,1.352056141999999905e+00
4.729999999999999716e+01,2.338280169000000086e+01,1.472823479999999963e+00
4.750000000000000000e+01,2.216031502999999958e+01,1.437814769000000048e+00
4.770000000000000284e+01,1.734673451999999827e+01,1.242501164999999963e+00
4.789999999999999858e+01,1.906425222000000019e+01,1.293656737999999917e+00
4.810000000000000142e+01,2.057717616000000049e+01,1.390956788000000000e+00
4.829999999999999716e+01,1.641371489999999866e+01,1.199855525999999895e+00
4.850000000000000000e+01,1.847166490000000039e+01,1.329839320000000047e+00
4.870000000000000284e+01,1.834221583000000066e+01,1.275866871999999930e+00
4.889999999999999858e+01,1.875589910000000060e+01,1.298382286999999913e+00
4.910000000000000142e+01,1.877188853999999907e+01,1.322834134999999911e+00
4.929999999999999716e+01,1.899661542000000125e+01,1.313636196999999894e+00
4.950000000000000000e+01,1.882430164999999889e+01,1.277910700999999927e+00
4.970000000000000284e+01,1.834178139999999857e+01,1.266321698000000051e+00
4.989999999999999858e+01,1.726877882000000142e+01,1.228863631000000067e+00
5.010000000000000142e+01,1.712516589000000167e+01,1.227391193000000102e+00
5.029999999999999716e+01,1.805397719999999850e+01,1.285255701000000084e+00
5.050000000000000000e+01,1.977355155000000053e+01,1.322032104000000041e+00
5.070000000000000284e+01,1.887549999999999883e+01,1.311010027000000022e+00
5.089999999999999858e+01,2.026270399999999938e+01,1.353741928000000039e+00
5.110000000000000142e+01,2.398333041000000065e+01,1.477378700000000045e+00
5.129999999999999716e+01,2.250395019999999846e+01,1.423410924999999994e+00
5.150000000000000000e+01,2.302692446000000004e+01,1.435450412000000009e+00
5.170000000000000284e+01,2.252514700000000047e+01,1.409179796000000096e+00
5.189999999999999858e+01,2.162968864999999852e+01,1.391675894000000024e+00
5.210000000000000142e+01,1.801962937000000053e+01,1.262285526999999963e+00
5.229999999999999716e+01,2.041803704999999880e+01,1.338318773999999989e+00
5.250000000000000000e+01,1.913798068999999913e+01,1.318335051999999896e+00
5.270000000000000284e+01,2.224588324000000128e+01,1.432430168000000004e+00
5.289999999999999858e+01,1.751214530000000025e+01,1.265942858000000060e+00
5.310000000000000142e+01,1.817330487999999988e+01,1.291392357000000102e+00
5.329999999999999716e+01,1.828298605999999893e+01,1.303836468000000082e+00
5.350000000000000000e+01,2.020166919000000050e+01,1.423209412000000063e+00
5.370000000000000284e+01,2.125187706000000176e+01,1.490403689000000087e+00
5.389999999999999858e+01,2.091560842999999892e+01,1.469137925999999927e+00
5.410000000000000142e+01,2.101863562999999857e+01,1.448020238000000015e+00
5.429999999999999716e+01,2.191959015000000122e+01,1.501588154000000008e+00
5.450000000000000000e+01,1.802475572000000170e+01,1.311659259000000022e+00
5.470000000000000284e+01,2.034167457999999939e+01,1.429419532000000048e+00
5.489999999999999858e+01,2.200609131999999946e+01,1.420375369999999915e+00
5.510000000000000142e+01,2.127439993000000129e+01,1.449875562999999978e+00
5.529999999999999716e+01,2.520931659000000025e+01,1.571034993999999907e+00
5.550000000000000000e+01,2.586661288000000170e+01,1.646841108999999914e+00
5.570000000000000284e+01,2.370783248000000043e+01,1.537410538999999909e+00
5.589999999999999858e+01,2.035044884999999937e+01,1.401043083000000022e+00
5.610000000000000142e+01,1.986952558999999852e+01,1.354973712000000052e+00
5.629999999999999716e+01,1.836379043000000166e+01,1.268720271000000066e+00
5.650000000000000000e+01,1.985833441999999849e+01,1.352985472000000078e+00
5.670000000000000284e+01,1.837188524000000101e+01,1.286389094000000011e+00
5.689999999999999858e+01,1.841801939000000132e+01,1.304616248999999950e+00
5.710000000000000142e+01,2.017380453999999901e+01,1.362648244999999925e+00
5.729999999999999716e+01,1.985077606000000117e+01,1.332019508999999990e+00
5.750000000000000000e+01,1.987117407999999941e+01,1.359977855999999985e+00
5.770000000000000284e+01,1.675519467999999890e+01,1.198470740999999951e+00
5.789999999999999858e+01,1.861616173000000174e+01,1.305580511000000055e+00
5.810000000000000142e+01,2.119951478000000122e+01,1.368887551999999896e+00
5.829999999999999716e+01,1.846849415999999877e+01,1.270981273999999939e+00
5.850000000000000000e+01,1.927931773999999976e+01,1.294105575999999980e+00
5.870000000000000284e+01,1.881807274000000163e+01,1.297482283999999986e+00
5.889999999999999858e+01,2.039714679000000075e+01,1.344395409999999957e+00
5.910000000000000142e+01,2.143802777000000148e+01,1.399621226000000052e+00
5.929999999999999716e+01,2.022665521000000055e+01,1.320424942000000046e+00
5.950000000000000000e+01,2.197147806999999986e+01,1.390922663000000004e+00
5.970000000000000284e+01,2.271009697999999943e+01,1.406515348999999970e+00
5.989999999999999858e+01,2.589771713000000020e+01,1.506258598000000060e+00
6.010000000000000142e+01,2.191813580999999900e+01,1.386886311000000038e+00
6.029999999999999716e+01,2.340264701999999986e+01,1.449726631999999960e+00
6.050000000000000000e+01,1.971623897999999997e+01,1.331075961000000030e+00
6.070000000000000284e+01,2.080336896000000024e+01,1.366853888999999933e+00
6.089999999999999858e+01,1.825132394999999974e+01,1.247680437999999947e+00
6.110000000000000142e+01,2.229721475999999925e+01,1.452937861000000108e+00
6.129999999999999716e+01,2.149467162999999914e+01,1.364675306999999949e+00
6.150000000000000000e+01,1.936221692000000161e+01,1.306845733000000065e+00
6.170000000000000284e+01,2.265013747000000066e+01,1.408856107000000080e+00
6.189999999999999858e+01,2.163476297000000059e+01,1.361224074999999978e+00
6.210000000000000142e+01,2.319272524000000146e+01,1.435953749999999918e+00
6.229999999999999716e+01,2.009921342999999894e+01,1.339850868999999944e+00
6.250000000000000000e+01,2.115634963000000113e+01,1.383979775000000023e+00
6.270000000000000284e+01,2.357875144999999861e+01,1.455661807999999890e+00
6.289999999999999858e+01,2.091216979000000009e+01,1.376513329000000008e+00
6.310000000000000142e+01,2.287203245999999979e+01,1.457350729000000067e+00
6.329999999999999716e+01,2.123117703999999861e+01,1.392844323000000051e+00
6.350000000000000000e+01,2.404103080000000148e+01,1.477454779000000107e+00
6.370000000000000284e+01,2.186232571000000036e+01,1.421240048000000034e+00
6.389999999999999858e+01,2.506596460000000093e+01,1.519054310000000019e+00
6.409999999999999432e+01,2.571035771000000025e+01,1.542516285999999903e+00
6.429999999999999716e+01,2.130567131999999830e+01,1.371788462000000042e+00
6.450000000000000000e+01,2.347596079999999930e+01,1.426427423000000028e+00
6.470000000000000284e+01,1.926243467999999837e+01,1.308963365999999962e+00
6.490000000000000568e+01,2.044912865999999951e+01,1.363809797999999907e+00
6.509999999999999432e+01,2.223519515999999996e+01,1.421369783000000053e+00
6.529999999999999716e+01,2.180937643000000037e+01,1.416926297999999917e+00
6.550000000000000000e+01,2.167699533000000045e+01,1.399469502999999948e+00
6.570000000000000284e+01,2.024021700000000124e+01,1.342016541000000007e+00
6.590000000000000568e+01,2.220281313999999995e+01,1.387036554999999893e+00
6.609999999999999432e+01,2.083186372000000119e+01,1.369880540000000035e+00
6.629999999999999716e+01,1.872239354999999961e+01,1.296027610000000108e+00
6.650000000000000000e+01,2.158678171000000034e+01,1.420270479000000030e+00
6.670000000000000284e+01,2.199223865000000089e+01,1.427453708000000043e+00
6.690000000000000568e+01,2.618825728999999924e+01,1.599215433999999991e+00
6.709999999999999432e+01,2.312038366999999894e+01,1.489900527000000086e+00
6.729999999999999716e+01,2.816968603000000115e+01,1.711114052999999968e+00
6.750000000000000000e+01,2.831021442000000121e+01,1.654261838000000040e+00
6.770000000000000284e+01,2.369363510999999889e+01,1.479165158000000035e+00
6.790000000000000568e+01,2.186570148999999930e+01,1.441311471999999982e+00
6.809999999999999432e+01,2.256493777000000023e+01,1.436982302000000100e+00
6.829999999999999716e+01,1.862753061000000088e+01,1.289378601999999985e+00
6.850000000000000000e+01,2.040335028000000150e+01,1.356334034000000077e+00
6.870000000000000284e+01,2.122801704999999828e+01,1.396890750999999931e+00
6.890000000000000568e+01,2.374083479999999824e+01,1.476522431000000024e+00
6.909999999999999432e+01,2.454995793999999876e+01,1.467920475999999974e+00
6.929999999999999716e+01,2.513358501000000089e+01,1.554151856000000054e+00
6.950000000000000000e+01,2.241617812000000143e+01,1.431057055999999994e+00
6.970000000000000284e+01,1.970088124000000107e+01,1.307286924000000017e+00
6.990000000000000568e+01,2.031553296999999958e+01,1.351755897000000095e+00
7.009999999999999432e+01,2.289509527999999960e+01,1.494396856999999912e+00
7.029999999999999716e+01,2.412848449000000173e+01,1.494085775000000060e+00
7.050000000000000000e+01,2.060892434999999878e+01,1.386335797999999953e+00
7.070000000000000284e+01,2.300545526999999879e+01,1.464960059999999897e+00
7.090000000000000568e+01,2.443380141000000094e+01,1.519620369999999943e+00
7.109999999999999432e+01,2.540847361999999876e+01,1.536956452000000084e+00
7.129999999999999716e+01,2.170751960000000125e+01,1.416652103999999968e+00
7.150000000000000000e+01,2.063945838000000066e+01,1.367818680000000064e+00
7.170000000000000284e+01,1.957396410000000131e+01,1.342012919999999943e+00
7.190000000000000568e+01,1.989347390000000004e+01,1.320594424000000044e+00
7.209999999999999432e+01,1.943932567999999961e+01,1.290404906000000018e+00
7.229999999999999716e+01,1.822548301000000137e+01,1.260505634000000041e+00
7.250000000000000000e+01,2.175567132000000115e+01,1.410787602999999946e+00
7.270000000000000284e+01,2.386773108999999948e+01,1.468231661999999993e+00
7.290000000000000568e+01,1.935141215000000159e+01,1.279622661999999966e+00
7.309999999999999432e+01,2.145783777000000114e+01,1.369288381999999915e+00
7.329999999999999716e+01,2.372974363999999881e+01,1.463392255000000031e+00
7.350000000000000000e+01,2.355241360000000128e+01,1.478742784000000032e+00
7.370000000000000284e+01,2.229846892000000125e+01,1.436058886999999951e+00
7.390000000000000568e+01,2.289282444999999910e+01,1.462572758000000084e+00
7.409999999999999432e+01,2.025112890999999848e+01,1.364614567000000056e+00
7.429999999999999716e+01,2.180648903000000161e+01,1.439133996000000026e+00
7.450000000000000000e+01,1.998527088999999890e+01,1.326638879000000104e+00
7.470000000000000284e+01,2.232455586000000025e+01,1.426613364999999911e+00
7.490000000000000568e+01,2.219506257999999832e+01,1.452200659000000060e+00
7.509999999999999432e+01,2.152006137000000052e+01,1.403025766999999924e+00
7.529999999999999716e+01,2.030973851999999980e+01,1.371136364000000052e+00
7.550000000000000000e+01,2.342886518999999979e+01,1.471985821999999944e+00
7.570000000000000284e+01,2.173190463999999977e+01,1.394700162999999993e+00
7.590000000000000568e+01,1.905291485000000051e+01,1.309445104999999998e+00
7.609999999999999432e+01,2.035968796999999952e+01,1.351919858999999891e+00
7.629999999999999716e+01,2.137909913000000017e+01,1.407473310000000088e+00
7.650000000000000000e+01,1.965714953999999892e+01,1.354699274999999981e+00
7.670000000000000284e+01,1.912196236999999854e+01,1.326870095999999943e+00
7.690000000000000568e+01,2.098074052999999850e+01,1.375462506000000085e+00
7.709999999999999432e+01,2.342464916999999858e+01,1.463422564000000037e+00
7.729999999999999716e+01,1.934717995000000101e+01,1.317019742000000049e+00
7.750000000000000000e+01,2.003652393999999859e+01,1.334688185999999943e+00
7.770000000000000284e+01,2.153690917999999854e+01,1.450578370999999978e+00
7.790000000000000568e+01,2.004620905999999891e+01,1.379856812000000099e+00
7.809999999999999432e+01,2.175926111000000063e+01,1.419374302000000032e+00
7.829999999999999716e+01,2.067537022999999863e+01,1.392333441999999977e+00
7.850000000000000000e+01,2.315261239000000160e+01,1.468824957999999903e+00
7.870000000000000284e+01,2.348902445999999955e+01,1.477039411000000024e+00
7.890000000000000568e+01,2.059331716000000156e+01,1.389231179000000038e+00
7.909999999999999432e+01,2.213236415000000079e+01,1.409893924999999992e+00
7.929999999999999716e+01,2.000718771000000018e+01,1.328186284999999911e+00
7.950000000000000000e+01,2.080875158999999996e+01,1.377885196999999895e+00
7.970000000000000284e+01,1.926389259999999837e+01,1.296768397999999989e+00
7.990000000000000568e+01,2.265901927000000171e+01,1.422320189999999984e+00
8.009999999999999432e+01,2.079733931000000169e+01,1.366602756000000030e+00
8.029999999999999716e+01,2.159049382999999978e+01,1.390247121999999891e+00
8.050000000000000000e+01,1.859929109999999852e+01,1.289909264999999916e+00
8.070000000000000284e+01,2.211853534000000110e+01,1.408687360999999916e+00
8.090000000000000568e+01,2.041468070000000168e+01,1.358759677000000110e+00
8.109999999999999432e+01,2.071596227999999940e+01,1.364480190000000093e+00
8.129999999999999716e+01,2.318623217000000025e+01,1.461659416999999905e+00
8.150000000000000000e+01,1.977325394000000003e+01,1.338625718000000075e+00
8.170000000000000284e+01,1.963989351000000028e+01,1.341532570000000035e+00
8.190000000000000568e+01,2.073637467000000001e+01,1.370452723999999955e+00
8.209999999999999432e+01,2.192520890999999850e+01,1.405058528999999945e+00
8.229999999999999716e+01,2.298181651000000159e+01,1.470070108999999903e+00
8.250000000000000000e+01,1.973064165999999986e+01,1.311462775000000081e+00
8.270000000000000284e+01,2.243568842000000174e+01,1.466751440999999989e+00
8.290000000000000568e+01,2.176280346000000065e+01,1.402221984000000088e+00
8.309999999999999432e+01,2.174625508999999823e+01,1.396270169999999977e+00
8.329999999999999716e+01,2.067104136000000025e+01,1.375265326999999926e+00
8.350000000000000000e+01,1.983651791000000131e+01,1.305095936999999928e+00
8.370000000000000284e+01,1.984533777000000043e+01,1.342019501000000004e+00
8.390000000000000568e+01,2.290222447000000017e+01,1.462213379000000035e+00
8.409999999999999432e+01,2.008031916999999922e+01,1.352990018000000072e+00
8.429999999999999716e+01,2.242763309000000049e+01,1.468665684999999943e+00
8.450000000000000000e+01,2.266146215999999924e+01,1.412892413000000014e+00
8.470000000000000284e+01,2.143443753000000029e+01,1.402486098000000014e+00
8.490000000000000568e+01,2.188072204999999926e+01,1.387125421999999997e+00
8.509999999999999432e+01,2.178112545000000111e+01,1.425068094000000007e+00
8.529999999999999716e+01,1.978090171999999924e+01,1.349921123999999972e+00
8.550000000000000000e+01,2.064163698999999852e+01,1.351108884000000065e+00
8.570000000000000284e+01,2.285519822999999917e+01,1.441535900000000092e+00
8.590000000000000568e+01,2.009674512000000135e+01,1.363359645000000064e+00
8.609999999999999432e+01,2.223703180000000046e+01,1.416888189000000020e+00
8.629999999999999716e+01,2.218606836000000015e+01,1.450795013000000022e+00
8.650000000000000000e+01,2.058398913999999991e+01,1.360336113000000013e+00
8.670000000000000284e+01,2.095137100999999902e+01,1.377842417999999958e+00
8.690000000000000568e+01,2.037658167000000020e+01,1.343259495000000081e+00
8.709999999999999432e+01,2.188073783999999833e+01,1.414184330000000100e+00
8.729999999999999716e+01,2.138187389000000138e+01,1.404428181000000109e+00
8.750000000000000000e+01,1.933745263999999864e+01,1.306002297000000034e+00
8.770000000000000284e+01,1.987910881000000174e+01,1.337130603999999945e+00
8.790000000000000568e+01,1.989024411999999842e+01,1.347484332999999923e+00
8.809999999999999432e+01,2.175737755999999834e+01,1.401751022000000013e+00
8.829999999999999716e+01,2.354823533000000069e+01,1.481995823000000101e+00
8.850000000000000000e+01,1.957454891000000075e+01,1.307510683000000062e+00
8.870000000000000284e+01,2.480566071999999878e+01,1.516391126999999894e+00
8.890000000000000568e+01,2.211747261000000009e+01,1.419177064999999960e+00
8.909999999999999432e+01,2.129494787000000144e+01,1.375521607999999896e+00
8.929999999999999716e+01,2.005758330999999828e+01,1.352981146000000079e+00
8.950000000000000000e+01,2.110289497999999853e+01,1.388785874000000087e+00
8.970000000000000284e+01,2.261393900999999929e+01,1.427296093000000043e+00
8.990000000000000568e+01,1.914415347999999994e+01,1.329074340000000021e+00
9.009999999999999432e+01,2.095739976000000127e+01,1.371579982000000086e+00
9.029999999999999716e+01,2.163878095999999829e+01,1.414354971999999933e+00
9.050000000000000000e+01,2.114163343999999967e+01,1.398821861999999916e+00
9.070000000000000284e+01,2.062838281000000151e+01,1.359819053999999916e+00
9.090000000000000568e+01,2.123102873999999929e+01,1.367287366000000004e+00
9.109999999999999432e+01,2.464834026000000122e+01,1.501580198000000088e+00
9.129999999999999716e+01,2.333386654999999976e+01,1.448405793999999913e+00
9.150000000000000000e+01,2.090497335999999962e+01,1.383359902999999891e+00
9.170000000000000284e+01,2.390789226000000056e+01,1.489878583999999950e+00
9.190000000000000568e+01,2.086224673999999979e+01,1.368132091999999966e+00
9.209999999999999432e+01,1.962525125000000159e+01,1.351853098999999947e+00
9.229999999999999716e+01,2.095824102999999994e+01,1.376569635000000069e+00
9.250000000000000000e+01,2.094803145999999927e+01,1.395857297000000052e+00
9.270000000000000284e+01,2.191924059999999841e+01,1.411530307000000040e+00
9.290000000000000568e+01,2.313858799999999860e+01,1.467182492000000060e+00
9.309999999999999432e+01,2.110042358999999834e+01,1.397301552000000058e+00
9.329999999999999716e+01,2.054025786000000053e+01,1.367998438000000094e+00
9.350000000000000000e+01,2.164174966999999938e+01,1.411454006000000039e+00
9.370000000000000284e+01,2.294593473999999844e+01,1.449041621999999974e+00
9.390000000000000568e+01,2.246958264999999955e+01,1.424171759999999898e+00
9.409999999999999432e+01,2.302345466999999957e+01,1.452795164000000083e+00
9.429999999999999716e+01,1.984386299999999892e+01,1.312895461000000097e+00
9.450000000000000000e+01,2.309858176999999912e+01,1.430445262999999967e+00
9.470000000000000284e+01,2.177798729999999949e+01,1.387370022000000036e+00
9.490000000000000568e+01,2.228720047999999920e+01,1.417891151000000072e+00
9.509999999999999432e+01,2.270991014999999891e+01,1.448053594000000110e+00
9.529999999999999716e+01,2.078259732000000071e+01,1.353845264999999909e+00
9.550000000000000000e+01,2.340946317999999948e+01,1.465006218999999943e+00
9.570000000000000284e+01,2.190219618000000068e+01,1.424153422999999918e+00
9.590000000000000568e+01,2.441006699000000069e+01,1.518311181000000065e+00
9.609999999999999432e+01,2.357689913000000104e+01,1.506238117000000098e+00
9.629999999999999716e+01,2.380185890999999998e+01,1.468990041000000080e+00
9.650000000000000000e+01,2.254765206000000077e+01,1.443854960999999992e+00
9.670000000000000284e+01,2.138815878999999853e+01,1.371910645999999900e+00
9.690000000000000568e+01,2.369728363999999843e+01,1.483410306999999984e+00
9.709999999999999432e+01,2.144505035999999976e+01,1.388782533999999957e+00
9.729999999999999716e+01,2.419138154999999912e+01,1.494168453999999979e+00
9.750000000000000000e+01,2.228212603000000058e+01,1.453131981999999933e+00
9.770000000000000284e+01,2.028870895000000019e+01,1.342485090999999908e+00
9.790000000000000568e+01,2.326032843000000128e+01,1.467755176000000050e+00
9.809999999999999432e+01,2.335206314999999933e+01,1.423397730000000028e+00
9.829999999999999716e+01,2.164711305000000152e+01,1.378231235999999971e+00
9.850000000000000000e+01,2.614912324999999882e+01,1.578360436999999949e+00
9.870000000000000284e+01,2.437667197000000030e+01,1.469948583000000086e+00
9.890000000000000568e+01,2.284452106000000171e+01,1.445139329000000084e+00
9.909999999999999432e+01,1.948794934000000012e+01,1.314518781000000081e+00
9.929999999999999716e+01,1.980991649999999993e+01,1.339640598999999987e+00
9.950000000000000000e+01,2.323825658000000161e+01,1.482146822999999891e+00
9.970000000000000284e+01,2.273987157999999908e+01,1.452062222999999985e+00
9.990000000000000568e+01,2.263421744000000047e+01,1.421703450999999951e+00
