x_axis,Intensity,Error
1.009999999999999964e+01,4.010191281000000174e+01,4.743067546999999884e+00
1.030000000000000071e+01,3.621408963999999742e+01,4.652251800000000159e+00
1.050000000000000000e+01,3.477650429999999915e+01,4.504541981000000028e+00
1.069999999999999929e+01,4.516048545999999675e+01,5.687139986000000036e+00
1.090000000000000036e+01,4.353690492999999861e+01,5.171523990999999931e+00
1.109999999999999964e+01,4.353431304000000068e+01,4.983788586000000187e+00
1.130000000000000071e+01,4.325606279000000143e+01,5.086422740999999803e+00
1.150000000000000000e+01,4.719575096999999886e+01,5.090221091000000087e+00
1.169999999999999929e+01,3.746080849999999884e+01,4.183916270000000104e+00
1.190000000000000036e+01,4.288536383000000285e+01,4.874214099999999661e+00
1.209999999999999964e+01,4.274924001000000118e+01,4.784298202000000444e+00
1.230000000000000071e+01,3.105551991000000100e+01,3.866219769000000195e+00
1.250000000000000000e+01,3.855680327999999690e+01,4.599326232000000125e+00
1.269999999999999929e+01,4.077464505999999744e+01,4.664991934999999756e+00
1.290000000000000036e+01,4.653459928000000190e+01,5.084386129000000309e+00
1.309999999999999964e+01,4.990155584000000033e+01,5.240907145000000433e+00
1.330000000000000071e+01,4.622593677999999784e+01,5.177344792000000417e+00
1.350000000000000000e+01,4.738520084000000310e+01,5.236674916000000124e+00
1.369999999999999929e+01,3.971883724999999998e+01,4.493467419999999990e+00
1.390000000000000036e+01,3.850924260000000032e+01,4.589005625999999616e+00
1.409999999999999964e+01,3.844069737000000231e+01,4.664490766000000121e+00
1.430000000000000071e+01,4.132661307000000050e+01,4.772876124999999803e+00
1.450000000000000000e+01,4.858891606000000252e+01,5.210972547999999982e+00
1.469999999999999929e+01,4.377073604999999645e+01,4.688821980000000167e+00
1.490000000000000036e+01,5.808163940000000025e+01,5.769536206999999806e+00
1.509999999999999964e+01,4.264481261000000245e+01,4.976617853999999674e+00
1.530000000000000071e+01,4.097467165999999850e+01,4.628819383999999815e+00
1.550000000000000000e+01,4.656284587999999758e+01,5.098090372999999786e+00
1.569999999999999929e+01,3.445880234999999914e+01,4.082042934000000400e+00
1.590000000000000036e+01,4.975854692000000057e+01,5.249971054000000414e+00
1.610000000000000142e+01,5.036770571000000274e+01,5.567516751000000319e+00
1.630000000000000071e+01,5.282389049999999742e+01,5.593328195999999863e+00
1.650000000000000000e+01,4.850898260000000306e+01,5.115319582999999781e+00
1.669999999999999929e+01,5.708114794000000103e+01,5.567251573000000064e+00
1.689999999999999858e+01,4.947284325999999766e+01,5.291604521000000005e+00
1.710000000000000142e+01,5.659484874000000332e+01,5.922999864000000336e+00
1.730000000000000071e+01,5.223257195000000053e+01,5.311414384999999960e+00
1.750000000000000000e+01,4.387896760000000285e+01,4.883022147000000146e+00
1.769999999999999929e+01,5.640131393000000060e+01,5.629179998999999768e+00
1.789999999999999858e+01,6.801149818000000380e+01,6.367410856000000230e+00
1.810000000000000142e+01,5.410359485000000035e+01,5.507193958000000222e+00
1.830000000000000071e+01,4.575618174000000238e+01,5.024264879000000406e+00
1.850000000000000000e+01,6.575459621999999626e+01,5.959530217000000185e+00
1.869999999999999929e+01,5.249015968999999870e+01,5.300257128000000151e+00
1.889999999999999858e+01,5.546727880000000255e+01,5.542793432999999936e+00
1.910000000000000142e+01,5.440037960000000083e+01,5.511091085000000334e+00
1.930000000000000071e+01,6.422138538000000096e+01,5.978545417000000306e+00
1.950000000000000000e+01,5.148475288000000205e+01,5.277593138000000295e+00
1.969999999999999929e+01,6.391254683999999742e+01,5.996903220000000090e+00
1.989999999999999858e+01,5.435297858999999931e+01,5.464877663000000219e+00
2.010000000000000142e+01,6.358742098999999826e+01,6.009416106999999840e+00
2.030000000000000071e+01,5.070118829999999832e+01,5.232644713000000003e+00
2.050000000000000000e+01,5.216691638999999725e+01,5.330263654000000351e+00
2.069999999999999929e+01,5.303758510000000115e+01,5.388825214999999780e+00
2.089999999999999858e+01,6.813195018000000402e+01,6.112255290000000230e+00
2.110000000000000142e+01,6.830011629999999911e+01,6.096335645999999997e+00
2.130000000000000071e+01,6.195261107000000322e+01,6.026932261999999874e+00
2.150000000000000000e+01,5.543059376000000071e+01,5.300897228000000183e+00
2.169999999999999929e+01,6.179846301999999980e+01,5.851829570999999675e+00
2.189999999999999858e+01,6.656027668000000119e+01,6.219405111999999569e+00
2.210000000000000142e+01,6.851552734000000555e+01,6.248902136999999968e+00
2.230000000000000071e+01,5.720842787000000129e+01,5.554924749999999634e+00
2.250000000000000000e+01,5.748773050999999867e+01,5.499928137999999578e+00
2.269999999999999929e+01,7.125405895000000100e+01,6.370387593000000237e+00
2.289999999999999858e+01,6.037017497000000077e+01,6.118310291000000234e+00
2.310000000000000142e+01,6.535151507999999865e+01,6.053093589999999580e+00
2.330000000000000071e+01,6.477799894999999708e+01,5.926162378999999980e+00
2.350000000000000000e+01,6.289054696000000177e+01,5.986660770000000298e+00
2.369999999999999929e+01,7.233619435999999325e+01,6.282399134000000274e+00
2.389999999999999858e+01,7.252095713999999305e+01,6.389135764999999800e+00
2.410000000000000142e+01,7.491241132000000391e+01,6.568386591000000330e+00
2.430000000000000071e+01,7.371570977000000369e+01,6.526124874999999825e+00
2.450000000000000000e+01,7.962446400999999696e+01,6.660442470999999642e+00
2.469999999999999929e+01,7.646669575999999324e+01,6.594835412000000119e+00
2.489999999999999858e+01,6.366579382999999837e+01,5.849017753000000042e+00
2.510000000000000142e+01,7.169263603000000273e+01,6.313349760000000366e+00
2.530000000000000071e+01,6.035329326000000094e+01,5.629273530999999942e+00
2.550000000000000000e+01,7.477585910999999896e+01,6.476215367000000001e+00
2.569999999999999929e+01,6.290391919999999715e+01,5.924729575999999831e+00
2.589999999999999858e+01,6.362265660999999994e+01,5.826610359000000017e+00
2.610000000000000142e+01,5.849414835999999696e+01,5.567242488999999850e+00
2.630000000000000071e+01,6.317547265999999695e+01,5.797952754999999847e+00
2.650000000000000000e+01,7.427371906000000479e+01,6.570731557000000223e+00
2.669999999999999929e+01,7.043290541000000360e+01,6.865592459000000147e+00
2.689999999999999858e+01,5.611780240000000219e+01,5.247529689000000275e+00
2.710000000000000142e+01,6.819907637999999395e+01,6.034477206000000038e+00
2.730000000000000071e+01,6.880272623999999837e+01,6.283011135999999830e+00
2.750000000000000000e+01,5.627872474000000125e+01,5.484909565999999792e+00
2.769999999999999929e+01,7.588811828000000048e+01,6.485699390999999814e+00
2.789999999999999858e+01,6.760181907000000479e+01,6.086310553999999762e+00
2.810000000000000142e+01,7.393019798000000264e+01,6.252422367000000314e+00
2.830000000000000071e+01,7.781821748000000127e+01,6.611133058000000062e+00
2.850000000000000000e+01,6.651143249000000424e+01,5.991078644999999980e+00
2.869999999999999929e+01,7.048191199000000040e+01,6.162289541999999898e+00
2.889999999999999858e+01,7.596045757000000265e+01,6.396607955000000345e+00
2.910000000000000142e+01,7.254933171000000414e+01,6.223633610000000260e+00
2.930000000000000071e+01,7.503842616999999393e+01,6.438782084999999711e+00
2.950000000000000000e+01,7.512346221999999329e+01,6.466642082999999985e+00
2.969999999999999929e+01,7.086950113999999701e+01,6.123615445000000435e+00
2.989999999999999858e+01,6.947978139999999314e+01,6.114115140000000004e+00
3.010000000000000142e+01,8.259141732000000502e+01,6.701874448999999956e+00
3.030000000000000071e+01,7.161138628000000494e+01,6.212914708999999647e+00
3.050000000000000000e+01,7.242135283999999729e+01,6.324696078999999749e+00
3.069999999999999929e+01,7.449486321000000544e+01,6.370990227000000061e+00
3.089999999999999858e+01,7.475622278000000165e+01,6.418902134999999731e+00
3.110000000000000142e+01,7.066301760999999715e+01,6.352226235999999915e+00
3.130000000000000071e+01,8.375504026999999496e+01,6.867403978999999659e+00
3.150000000000000000e+01,6.847296955000000196e+01,5.947782734999999654e+00
3.169999999999999929e+01,7.892855857000000697e+01,6.534738015000000289e+00
3.189999999999999858e+01,7.334694378999999742e+01,6.270012656999999656e+00
3.210000000000000142e+01,9.100739516000000151e+01,7.252707566999999855e+00
3.229999999999999716e+01,7.381629125000000613e+01,6.132494357999999757e+00
3.250000000000000000e+01,7.804014374999999859e+01,6.627343012999999949e+00
3.270000000000000284e+01,8.224615882999999883e+01,6.656261842000000151e+00
3.289999999999999858e+01,9.008248677999999643e+01,7.066762340999999559e+00
3.310000000000000142e+01,7.582908795000000168e+01,6.455634454000000133e+00
3.329999999999999716e+01,7.133504571999999655e+01,6.105310732000000407e+00
3.350000000000000000e+01,8.496449307999999689e+01,6.787284663000000329e+00
3.370000000000000284e+01,7.561146066999999960e+01,6.611689745999999701e+00
3.389999999999999858e+01,7.279857359999999744e+01,6.340480464999999732e+00
3.410000000000000142e+01,8.489245705999999814e+01,6.892832368999999737e+00
3.429999999999999716e+01,9.167233663000000377e+01,6.989438316000000206e+00
3.450000000000000000e+01,8.963538701999999603e+01,7.076172781000000356e+00
3.470000000000000284e+01,8.786882631000000288e+01,6.946485448999999868e+00
3.489999999999999858e+01,9.714895242999999425e+01,7.517295316000000227e+00
3.510000000000000142e+01,9.245608887999999581e+01,7.159332479999999777e+00
3.529999999999999716e+01,8.789766160000000639e+01,7.136961513000000146e+00
3.550000000000000000e+01,8.154992153999999971e+01,6.571637372999999727e+00
3.570000000000000284e+01,1.198358068000000003e+02,8.388836043999999603e+00
3.589999999999999858e+01,1.489193548000000078e+02,9.113235933000000344e+00
3.610000000000000142e+01,1.522218914000000041e+02,9.028169934999999313e+00
3.629999999999999716e+01,1.992951385000000073e+02,1.104060766999999998e+01
3.650000000000000000e+01,2.426942434000000048e+02,1.225897059000000056e+01
3.670000000000000284e+01,2.697243786000000227e+02,1.295289175999999998e+01
3.689999999999999858e+01,2.266414825999999891e+02,1.173309667000000012e+01
3.710000000000000142e+01,1.961765569000000085e+02,1.086651935000000080e+01
3.729999999999999716e+01,1.781962939000000006e+02,1.023029531999999975e+01
3.750000000000000000e+01,1.320772233000000142e+02,8.673015472999999531e+00
3.770000000000000284e+01,9.481119010000000458e+01,7.144417931000000443e+00
3.789999999999999858e+01,8.996656287000000418e+01,6.888774752999999862e+00
3.810000000000000142e+01,8.862659406999999590e+01,7.014508352000000002e+00
3.829999999999999716e+01,9.790250880000000677e+01,7.158730281000000417e+00
3.850000000000000000e+01,9.671580609999999467e+01,7.517832997000000184e+00
3.870000000000000284e+01,9.695484788999999637e+01,7.624512248000000270e+00
3.889999999999999858e+01,8.588317378000000701e+01,6.837315650999999939e+00
3.910000000000000142e+01,9.402777423999999939e+01,7.273731510000000178e+00
3.929999999999999716e+01,7.429006850000000384e+01,6.219643948999999949e+00
3.950000000000000000e+01,8.991511678000000529e+01,7.063627585999999958e+00
3.970000000000000284e+01,9.499883375000000285e+01,7.232498209000000067e+00
3.989999999999999858e+01,1.002734903000000060e+02,7.592198609000000431e+00
4.010000000000000142e+01,9.970769559999999387e+01,7.452232213000000272e+00
4.029999999999999716e+01,7.535847803000000056e+01,6.337203258999999811e+00
4.050000000000000000e+01,8.718589065000000460e+01,7.055612007999999769e+00
4.070000000000000284e+01,9.999026822999999808e+01,7.485648343000000260e+00
4.089999999999999858e+01,9.543157965000000331e+01,7.248615755000000327e+00
4.110000000000000142e+01,9.505908951000000684e+01,7.304792452000000047e+00
4.129999999999999716e+01,1.029174126999999999e+02,7.408537393999999665e+00
4.150000000000000000e+01,9.427064821999999822e+01,6.859081545999999641e+00
4.170000000000000284e+01,1.062224396000000013e+02,7.464150586999999781e+00
4.189999999999999858e+01,1.220544352999999944e+02,7.805763696999999723e+00
4.210000000000000142e+01,1.498835510000000113e+02,8.674421709000000646e+00
4.229999999999999716e+01,1.805013412000000130e+02,9.479131913999999881e+00
4.250000000000000000e+01,1.712007019000000128e+02,9.230292248999999671e+00
4.270000000000000284e+01,2.002611809999999934e+02,9.898469962000000066e+00
4.289999999999999858e+01,1.613008868000000007e+02,8.930836336000000486e+00
4.310000000000000142e+01,1.604250845999999910e+02,8.980563639999999737e+00
4.329999999999999716e+01,1.361516541000000018e+02,8.328585742999999653e+00
4.350000000000000000e+01,1.089551701000000037e+02,7.377955363999999960e+00
4.370000000000000284e+01,9.820607232000000408e+01,7.064000119000000133e+00
4.389999999999999858e+01,1.026682913000000070e+02,7.524690799000000041e+00
4.410000000000000142e+01,9.931786825999999735e+01,7.249259362000000095e+00
4.429999999999999716e+01,9.848437982999999463e+01,7.435066093999999737e+00
4.450000000000000000e+01,1.051608252000000050e+02,7.604615478000000373e+00
4.470000000000000284e+01,1.008568395000000066e+02,7.471636339999999876e+00
4.489999999999999858e+01,1.025225190999999967e+02,7.539131586999999968e+00
4.510000000000000142e+01,1.153158111000000048e+02,8.136203330000000733e+00
4.529999999999999716e+01,9.561631934000000399e+01,7.330571568999999954e+00
4.550000000000000000e+01,9.304075342000000148e+01,6.993803558999999836e+00
4.570000000000000284e+01,8.856130344000000321e+01,6.805677672999999928e+00
4.589999999999999858e+01,9.990777923999999643e+01,7.311846379000000340e+00
4.610000000000000142e+01,1.159524317999999994e+02,8.047986743999999248e+00
4.629999999999999716e+01,1.026450135999999986e+02,7.419884981000000046e+00
4.650000000000000000e+01,1.108877671999999990e+02,7.854026118000000167e+00
4.670000000000000284e+01,1.148890523000000030e+02,7.872117242999999931e+00
4.689999999999999858e+01,9.039121903999999574e+01,7.032286919999999775e+00
4.710000000000000142e+01,1.090687743000000012e+02,7.839113548000000264e+00
4.729999999999999716e+01,1.080886909999999972e+02,7.778936702000000203e+00
4.750000000000000000e+01,1.048348594999999932e+02,7.687030195000000177e+00
4.770000000000000284e+01,9.708254415000000392e+01,7.358492393999999770e+00
4.789999999999999858e+01,9.565299075000000073e+01,7.101116826000000160e+00
4.810000000000000142e+01,9.844428738999999950e+01,7.337369309999999700e+00
4.829999999999999716e+01,1.124668936000000059e+02,7.958850695999999836e+00
4.850000000000000000e+01,1.110700640999999962e+02,7.627645056000000423e+00
4.870000000000000284e+01,1.059134829999999994e+02,7.655353993000000301e+00
4.889999999999999858e+01,9.641695196000000578e+01,7.133740913999999655e+00
4.910000000000000142e+01,8.871067566000000681e+01,6.897784031999999677e+00
4.929999999999999716e+01,1.078125296999999989e+02,7.818754550000000414e+00
4.950000000000000000e+01,1.088957264000000009e+02,7.697211847000000162e+00
4.970000000000000284e+01,9.338411102000000596e+01,7.012243444000000103e+00
4.989999999999999858e+01,1.140024767999999966e+02,8.017293753000000578e+00
5.010000000000000142e+01,1.036937008000000020e+02,7.441198815999999994e+00
5.029999999999999716e+01,1.105153638000000029e+02,7.784117301000000211e+00
5.050000000000000000e+01,9.665045096999999430e+01,7.180956646000000276e+00
5.070000000000000284e+01,1.043929451999999998e+02,7.522483635999999585e+00
5.089999999999999858e+01,1.009480101999999988e+02,7.429175746000000302e+00
5.110000000000000142e+01,1.062553161000000017e+02,7.705424289999999843e+00
5.129999999999999716e+01,1.006085431000000057e+02,7.579834813999999810e+00
5.150000000000000000e+01,1.001528547000000060e+02,7.437033944000000396e+00
5.170000000000000284e+01,1.089064130000000006e+02,7.643850575000000092e+00
5.189999999999999858e+01,1.148692317000000003e+02,7.828927451000000204e+00
5.210000000000000142e+01,1.200137741000000062e+02,8.197698860999999226e+00
5.229999999999999716e+01,1.132250449000000003e+02,7.926959015999999636e+00
5.250000000000000000e+01,1.107968881999999979e+02,7.759939701000000412e+00
5.270000000000000284e+01,1.077258202999999952e+02,7.556203316000000392e+00
5.289999999999999858e+01,1.068628894000000003e+02,7.661909295000000064e+00
5.310000000000000142e+01,1.079049104999999997e+02,7.706786333000000155e+00
5.329999999999999716e+01,1.206059735999999987e+02,7.999498169999999853e+00
5.350000000000000000e+01,1.157064177999999970e+02,7.986443083000000165e+00
5.370000000000000284e+01,9.470455056999999499e+01,7.272458943000000176e+00
5.389999999999999858e+01,1.105268676999999968e+02,7.829043275000000079e+00
5.410000000000000142e+01,1.080619379000000038e+02,7.612957737000000336e+00
5.429999999999999716e+01,1.104338043999999996e+02,7.605806012000000393e+00
5.450000000000000000e+01,1.034099860000000035e+02,7.472095697000000314e+00
5.470000000000000284e+01,1.201750205999999963e+02,8.349155656000000647e+00
5.489999999999999858e+01,1.172657082000000059e+02,8.170024624999999929e+00
5.510000000000000142e+01,1.035200964999999940e+02,7.472651403000000414e+00
5.529999999999999716e+01,1.026912980000000033e+02,7.357592638999999934e+00
5.550000000000000000e+01,1.249459111999999976e+02,8.260076254999999534e+00
5.570000000000000284e+01,1.023862381999999940e+02,7.452438779000000402e+00
5.589999999999999858e+01,1.170494331999999957e+02,7.945341963999999813e+00
5.610000000000000142e+01,1.175475947000000048e+02,8.021569510999999153e+00
5.629999999999999716e+01,1.104747411000000028e+02,7.661817436999999842e+00
5.650000000000000000e+01,1.172713219999999978e+02,8.011143120999999923e+00
5.670000000000000284e+01,1.050118635999999981e+02,7.525675396999999656e+00
5.689999999999999858e+01,1.091804262999999935e+02,7.763267456000000344e+00
5.710000000000000142e+01,1.167032090000000011e+02,7.841358192000000393e+00
5.729999999999999716e+01,9.330978862999999990e+01,7.009664807000000053e+00
5.750000000000000000e+01,1.108155758000000048e+02,7.823516571999999947e+00
5.770000000000000284e+01,1.108969745999999930e+02,7.731023931000000182e+00
5.789999999999999858e+01,1.249049591999999933e+02,8.282046869000000200e+00
5.810000000000000142e+01,1.149372364999999974e+02,7.810506782000000037e+00
5.829999999999999716e+01,1.253041388000000040e+02,8.269426958000000383e+00
5.850000000000000000e+01,1.151084656000000024e+02,7.972735258000000158e+00
5.870000000000000284e+01,1.183034009999999938e+02,8.002345892999999322e+00
5.889999999999999858e+01,1.082334100000000063e+02,7.462476566000000311e+00
5.910000000000000142e+01,1.199925264000000027e+02,8.152809221000000051e+00
5.929999999999999716e+01,1.129595630000000028e+02,8.012683437999999825e+00
5.950000000000000000e+01,1.098416729000000061e+02,7.724356346000000428e+00
5.970000000000000284e+01,1.127592120000000051e+02,7.790167421999999675e+00
5.989999999999999858e+01,1.193150521000000026e+02,8.119339513999999980e+00
6.010000000000000142e+01,1.164823530000000034e+02,7.918905882999999868e+00
6.029999999999999716e+01,1.257412601999999993e+02,8.166303745000000447e+00
6.050000000000000000e+01,1.365259412999999995e+02,8.542801299000000625e+00
6.070000000000000284e+01,1.382648436000000061e+02,8.562833138000000233e+00
6.089999999999999858e+01,1.528571916999999871e+02,9.266194435999999257e+00
6.110000000000000142e+01,1.742495683999999869e+02,9.737285363999999888e+00
6.129999999999999716e+01,1.613925439999999867e+02,9.485884285999999221e+00
6.150000000000000000e+01,1.988974690000000010e+02,1.072183180000000036e+01
6.170000000000000284e+01,1.799976569000000097e+02,1.001008382000000019e+01
6.189999999999999858e+01,1.913142949999999871e+02,1.029773312999999924e+01
6.210000000000000142e+01,2.043197673999999893e+02,1.071237303999999924e+01
6.229999999999999716e+01,1.696111850000000061e+02,9.685471052000000469e+00
6.250000000000000000e+01,1.733509262000000035e+02,9.759148770999999556e+00
6.270000000000000284e+01,1.755804898000000094e+02,1.007545044999999995e+01
6.289999999999999858e+01,1.521131091999999967e+02,9.132128153000000026e+00
6.310000000000000142e+01,1.459857004000000131e+02,9.074230684999999852e+00
6.329999999999999716e+01,1.273392901999999935e+02,8.369880108000000263e+00
6.350000000000000000e+01,1.359613534000000072e+02,8.647855807999999200e+00
6.370000000000000284e+01,1.254978368000000017e+02,8.217161812000000509e+00
6.389999999999999858e+01,1.213069907000000001e+02,8.157971755000000158e+00
6.409999999999999432e+01,1.334762685999999974e+02,8.311731202000000707e+00
6.429999999999999716e+01,1.176073685000000069e+02,8.066330372999999554e+00
6.450000000000000000e+01,1.294687045999999953e+02,8.524800298000000609e+00
6.470000000000000284e+01,1.233642464999999930e+02,8.317603938999999613e+00
6.490000000000000568e+01,1.278534010000000052e+02,8.282843169999999589e+00
6.509999999999999432e+01,1.096671316000000047e+02,7.701840618000000305e+00
6.529999999999999716e+01,1.126731692000000038e+02,7.893168707000000062e+00
6.550000000000000000e+01,1.049480760000000004e+02,7.515658808000000413e+00
6.570000000000000284e+01,1.240361093000000068e+02,8.168714486000000718e+00
6.590000000000000568e+01,1.139944437999999991e+02,7.898100708000000303e+00
6.609999999999999432e+01,1.080670592000000028e+02,7.587588235000000125e+00
6.629999999999999716e+01,1.236378033999999957e+02,8.210989388999999861e+00
6.650000000000000000e+01,1.251415484000000049e+02,8.201180574000000334e+00
6.670000000000000284e+01,1.318480250000000069e+02,8.507290788000000603e+00
6.690000000000000568e+01,1.143090425000000039e+02,7.885192435999999638e+00
6.709999999999999432e+01,1.262275219999999933e+02,8.319573755000000403e+00
6.729999999999999716e+01,1.062040144000000055e+02,7.417739402999999676e+00
6.750000000000000000e+01,1.368490639999999985e+02,8.664758219999999511e+00
6.770000000000000284e+01,1.237555691999999965e+02,8.261365278999999617e+00
6.790000000000000568e+01,1.095213171000000045e+02,7.542855100999999785e+00
6.809999999999999432e+01,1.310222029999999904e+02,8.513823833000000008e+00
6.829999999999999716e+01,1.267471654999999942e+02,8.425527014000000037e+00
6.850000000000000000e+01,1.051755036999999930e+02,7.438775910999999574e+00
6.870000000000000284e+01,1.141612022999999994e+02,7.806067701999999997e+00
6.890000000000000568e+01,1.289537503999999899e+02,8.504891647999999194e+00
6.909999999999999432e+01,1.140501332000000048e+02,7.657639246999999649e+00
6.929999999999999716e+01,1.227196009000000032e+02,8.061159499000000395e+00
6.950000000000000000e+01,1.385271770999999887e+02,8.766568425999999192e+00
6.970000000000000284e+01,1.254635975000000059e+02,8.101939978000000764e+00
6.990000000000000568e+01,1.205199472000000043e+02,8.046425642000000877e+00
7.009999999999999432e+01,1.221514717000000019e+02,8.241497422000000128e+00
7.029999999999999716e+01,1.331404315000000054e+02,8.701863445000000752e+00
7.050000000000000000e+01,1.448514019000000133e+02,8.937688921999999536e+00
7.070000000000000284e+01,1.127060635999999931e+02,7.749093703999999860e+00
7.090000000000000568e+01,1.324546785000000000e+02,8.357791955999999800e+00
7.109999999999999432e+01,1.388970386000000019e+02,8.690586509999999265e+00
7.129999999999999716e+01,1.169560443999999961e+02,7.867123237000000380e+00
7.150000000000000000e+01,1.242493228999999957e+02,8.369891707000000736e+00
7.170000000000000284e+01,1.351140446999999938e+02,8.683734851000000532e+00
7.190000000000000568e+01,1.245975399999999951e+02,8.390169609000000861e+00
7.209999999999999432e+01,1.297604652999999928e+02,8.466814119000000360e+00
7.229999999999999716e+01,1.364508518000000095e+02,8.788617935999999631e+00
7.250000000000000000e+01,1.330187257999999986e+02,8.789039835000000522e+00
7.270000000000000284e+01,1.511816817000000128e+02,9.563283538000000306e+00
7.290000000000000568e+01,1.636602972000000022e+02,1.011894492999999962e+01
7.309999999999999432e+01,1.772743610999999930e+02,1.068802548000000030e+01
7.329999999999999716e+01,1.873472475000000088e+02,1.131533720999999915e+01
7.350000000000000000e+01,1.870049793999999963e+02,1.122022630999999926e+01
7.370000000000000284e+01,1.969151687000000095e+02,1.171700738999999913e+01
7.390000000000000568e+01,2.083789093999999977e+02,1.244909357999999955e+01
7.409999999999999432e+01,2.402227929000000017e+02,1.328792806999999954e+01
7.429999999999999716e+01,2.277321482000000117e+02,1.303149475000000024e+01
7.450000000000000000e+01,2.235930457000000047e+02,1.292963710000000077e+01
7.470000000000000284e+01,2.241096815999999876e+02,1.272919341999999965e+01
7.490000000000000568e+01,1.948715359999999919e+02,1.134551000000000087e+01
7.509999999999999432e+01,1.747623958000000073e+02,1.079172943000000018e+01
7.529999999999999716e+01,1.714885218999999950e+02,1.051973753999999950e+01
7.550000000000000000e+01,1.618467898000000105e+02,1.034570058000000081e+01
7.570000000000000284e+01,1.462265007999999966e+02,9.305952566000000203e+00
7.590000000000000568e+01,1.361614089999999919e+02,8.776872279000000887e+00
7.609999999999999432e+01,1.410887597999999912e+02,9.124384298000000726e+00
7.629999999999999716e+01,1.401254950999999949e+02,8.790313257999999408e+00
7.650000000000000000e+01,1.419786834999999883e+02,8.583082091999999719e+00
7.670000000000000284e+01,1.402168091000000061e+02,8.833899764999999960e+00
7.690000000000000568e+01,1.415326013000000103e+02,8.707212057999999644e+00
7.709999999999999432e+01,1.338462074999999913e+02,8.317135856000000160e+00
7.729999999999999716e+01,1.474857695000000035e+02,8.613846530000000001e+00
7.750000000000000000e+01,1.587977846999999940e+02,9.002561033999999296e+00
7.770000000000000284e+01,1.383603564000000006e+02,8.389849199000000368e+00
7.790000000000000568e+01,1.507592071999999916e+02,8.627577643000000407e+00
7.809999999999999432e+01,1.492745668999999964e+02,8.685496660000000091e+00
7.829999999999999716e+01,1.508616596999999899e+02,8.873450447999999824e+00
7.850000000000000000e+01,1.520968014999999980e+02,8.620821977000000302e+00
7.870000000000000284e+01,1.475378531000000066e+02,8.783137934999999175e+00
7.890000000000000568e+01,1.456694783000000086e+02,8.771136467999999908e+00
7.909999999999999432e+01,1.468963708999999938e+02,9.042684472999999556e+00
7.929999999999999716e+01,1.384472400999999877e+02,8.384144041000000769e+00
7.950000000000000000e+01,1.369805657999999937e+02,8.440474070000000495e+00
7.970000000000000284e+01,1.454963592000000006e+02,8.778261618000000155e+00
7.990000000000000568e+01,1.355670015000000035e+02,8.333379947999999260e+00
8.009999999999999432e+01,1.362585771999999906e+02,8.533550302000000087e+00
8.029999999999999716e+01,1.387220282000000111e+02,8.632073908000000628e+00
8.050000000000000000e+01,1.373377329999999859e+02,8.636569701000000876e+00
8.070000000000000284e+01,1.249285656999999929e+02,8.275116725000000173e+00
8.090000000000000568e+01,1.281451078000000052e+02,8.307596820000000548e+00
8.109999999999999432e+01,1.383240293000000065e+02,8.747588377999999665e+00
8.129999999999999716e+01,1.194302808999999996e+02,8.262512802999999906e+00
8.150000000000000000e+01,1.299476468999999952e+02,8.321508227000000701e+00
8.170000000000000284e+01,1.333321149999999875e+02,8.473549670000000589e+00
8.190000000000000568e+01,1.281880573999999910e+02,8.322790747999999184e+00
8.209999999999999432e+01,1.307984318000000030e+02,8.571983131999999728e+00
8.229999999999999716e+01,1.238077267999999975e+02,8.279240720000000664e+00
8.250000000000000000e+01,1.308866524999999967e+02,8.246373353999999267e+00
8.270000000000000284e+01,1.268102970000000056e+02,8.240584149000000025e+00
8.290000000000000568e+01,1.304684230000000014e+02,8.403040725000000322e+00
8.309999999999999432e+01,1.370613002000000051e+02,8.723888717999999542e+00
8.329999999999999716e+01,1.219670181999999983e+02,8.035501349000000459e+00
8.350000000000000000e+01,1.369525764999999922e+02,8.793197201999999990e+00
8.370000000000000284e+01,1.423179407000000083e+02,8.887033596000000202e+00
8.390000000000000568e+01,1.440105409999999893e+02,8.755910493000000017e+00
8.409999999999999432e+01,1.159702584000000058e+02,7.865315786000000031e+00
8.429999999999999716e+01,1.321081631000000129e+02,8.387516341999999625e+00
8.450000000000000000e+01,1.363873847000000126e+02,8.589833223999999490e+00
8.470000000000000284e+01,1.239175213999999983e+02,8.080430077000000821e+00
8.490000000000000568e+01,1.402323532000000057e+02,8.871455566999999931e+00
8.509999999999999432e+01,1.306946639999999888e+02,8.416286884999999884e+00
8.529999999999999716e+01,1.269434282999999937e+02,8.517610375000000289e+00
8.550000000000000000e+01,1.258827476999999959e+02,8.306659997000000573e+00
8.570000000000000284e+01,1.351454533000000140e+02,8.482986612999999565e+00
8.590000000000000568e+01,1.341025365000000136e+02,8.419351232000000351e+00
8.609999999999999432e+01,1.260125685000000004e+02,8.274754867000000402e+00
8.629999999999999716e+01,1.297050393000000099e+02,8.337930031000000852e+00
8.650000000000000000e+01,1.210984722000000033e+02,7.853099886999999946e+00
8.670000000000000284e+01,1.296269867999999974e+02,8.296665550000000167e+00
8.690000000000000568e+01,1.212484781999999939e+02,8.171076416000000009e+00
8.709999999999999432e+01,1.330060196999999960e+02,8.550378401999999767e+00
8.729999999999999716e+01,1.354750419000000079e+02,8.583218961000000036e+00
8.750000000000000000e+01,1.284717977999999903e+02,8.480645699000000093e+00
8.770000000000000284e+01,1.214124867000000023e+02,7.945777805999999721e+00
8.790000000000000568e+01,1.170539796999999993e+02,8.027361098000000084e+00
8.809999999999999432e+01,1.423620576000000142e+02,8.870256210999999169e+00
8.829999999999999716e+01,1.368978665999999862e+02,8.593812255999999650e+00
8.850000000000000000e+01,1.325830180000000098e+02,8.418559862000000393e+00
8.870000000000000284e+01,1.288826985999999977e+02,8.409191534999999718e+00
8.890000000000000568e+01,1.253809080000000051e+02,8.149917358999999806e+00
8.909999999999999432e+01,1.361146229000000005e+02,8.675744977000000802e+00
8.929999999999999716e+01,1.341017478999999923e+02,8.477513227999999401e+00
8.950000000000000000e+01,1.255279270999999994e+02,8.234740430000000444e+00
8.970000000000000284e+01,1.234365700999999973e+02,8.254185410999999917e+00
8.990000000000000568e+01,1.447037793000000079e+02,8.676406554999999798e+00
9.009999999999999432e+01,1.327900904999999909e+02,8.476928936000000192e+00
9.029999999999999716e+01,1.308196724000000017e+02,8.429475696000000795e+00
9.050000000000000000e+01,1.397330420000000117e+02,8.775780783000000085e+00
9.070000000000000284e+01,1.368215903999999910e+02,8.448478720000000664e+00
9.090000000000000568e+01,1.364376044999999920e+02,8.596276342999999542e+00
9.109999999999999432e+01,1.387257623000000137e+02,8.666836411000000240e+00
9.129999999999999716e+01,1.537204309999999907e+02,9.098930058000000543e+00
9.150000000000000000e+01,1.427519440000000088e+02,8.630762482999999818e+00
9.170000000000000284e+01,1.439628256999999962e+02,8.733255791999999573e+00
9.190000000000000568e+01,1.519434227000000135e+02,9.119475216999999745e+00
9.209999999999999432e+01,1.397962008000000083e+02,8.419332547999999861e+00
9.229999999999999716e+01,1.491422222999999860e+02,8.894744121000000447e+00
9.250000000000000000e+01,1.345672158000000138e+02,8.180341767999999902e+00
9.270000000000000284e+01,1.552884223000000077e+02,8.998864481000000026e+00
9.290000000000000568e+01,1.400227654999999913e+02,8.308773061000000126e+00
9.309999999999999432e+01,1.332305566999999940e+02,8.249807030999999569e+00
9.329999999999999716e+01,1.444374517999999910e+02,8.621699963999999383e+00
9.350000000000000000e+01,1.525578740999999923e+02,8.785302273999999301e+00
9.370000000000000284e+01,1.455661966000000120e+02,8.623932064999999980e+00
9.390000000000000568e+01,1.705773830999999916e+02,9.487335606000000254e+00
9.409999999999999432e+01,1.481108150000000023e+02,8.532119077999999135e+00
9.429999999999999716e+01,1.508696946000000025e+02,8.801671679000000026e+00
9.450000000000000000e+01,1.561315332000000069e+02,9.083459939999999122e+00
9.470000000000000284e+01,1.524907513999999935e+02,9.171694138999999524e+00
9.490000000000000568e+01,1.468165003000000013e+02,8.923672872999999228e+00
9.509999999999999432e+01,1.349765327000000070e+02,8.607007789000000741e+00
9.529999999999999716e+01,1.478506610999999964e+02,8.872691779000000167e+00
9.550000000000000000e+01,1.367329133000000070e+02,8.679513066000000165e+00
9.570000000000000284e+01,1.334264105000000029e+02,8.370013830999999627e+00
9.590000000000000568e+01,1.321657417000000123e+02,8.373112571000000059e+00
9.609999999999999432e+01,1.314659839999999917e+02,8.463162124000000119e+00
9.629999999999999716e+01,1.369144038000000023e+02,8.493300012000000621e+00
9.650000000000000000e+01,1.284847353000000112e+02,8.365119824000000648e+00
9.670000000000000284e+01,1.324275402000000099e+02,8.318153375999999710e+00
9.690000000000000568e+01,1.215780972999999960e+02,8.204843402999999924e+00
9.709999999999999432e+01,1.329709642999999915e+02,8.558250008999999991e+00
9.729999999999999716e+01,1.272249666999999960e+02,8.242379820000000024e+00
9.750000000000000000e+01,1.529281923000000063e+02,9.071626794000000160e+00
9.770000000000000284e+01,1.283901046999999949e+02,8.465959992000000156e+00
9.790000000000000568e+01,1.287699791999999945e+02,8.381126860000000178e+00
9.809999999999999432e+01,1.340749099999999885e+02,8.722932186999999615e+00
9.829999999999999716e+01,1.425394450000000006e+02,8.852198574000000875e+00
9.850000000000000000e+01,1.474756911000000059e+02,8.917835917999999751e+00
9.870000000000000284e+01,1.480689618000000110e+02,9.154102822000000472e+00
9.890000000000000568e+01,1.405141940000000034e+02,8.716741590999999900e+00
9.909999999999999432e+01,1.468311626999999930e+02,9.052872174000000882e+00
9.929999999999999716e+01,1.437330681999999911e+02,8.985895893000000356e+00
9.950000000000000000e+01,1.330143198000000098e+02,8.363521387000000473e+00
9.970000000000000284e+01,1.222032152000000025e+02,8.114067154000000670e+00
9.990000000000000568e+01,1.481814201999999909e+02,9.025630899999999457e+00
