x_axis,Intensity,Error
1.009999999999999964e+01,9.382665970000000355e-01,9.924723546000000507e-01
1.030000000000000071e+01,1.015875319999999915e+00,9.441705895999999987e-01
1.050000000000000000e+01,7.139323087000000179e-01,5.121497130000000064e-01
1.069999999999999929e+01,1.884701776999999911e-01,1.480043178999999876e-01
1.090000000000000036e+01,1.736407362000000010e+00,1.046099450000000042e+00
1.109999999999999964e+01,1.565961667000000057e+00,1.265754068999999982e+00
1.130000000000000071e+01,5.630602811999999707e-02,5.751339130000000105e-02
1.150000000000000000e+01,2.121488306999999907e+00,1.058357451000000005e+00
1.169999999999999929e+01,1.976105977000000014e+00,1.198443994000000012e+00
1.190000000000000036e+01,1.045814236000000008e+00,6.355029009999999534e-01
1.209999999999999964e+01,1.213175791000000059e+00,9.347393856000000278e-01
1.230000000000000071e+01,3.332460640000000085e-01,3.332460640000000085e-01
1.250000000000000000e+01,1.724221970000000104e+00,1.371493811999999979e+00
1.269999999999999929e+01,2.908502502000000156e+00,1.902452132000000073e+00
1.290000000000000036e+01,1.515106819999999965e+00,1.049213095999999901e+00
1.309999999999999964e+01,7.291356348999999959e-01,5.682511228000000081e-01
1.330000000000000071e+01,2.391194680000000017e-03,1.806261117999999940e-03
1.350000000000000000e+01,9.297314742999999992e-02,1.026963354000000050e-01
1.369999999999999929e+01,7.222362710999999935e-01,5.501475239999999989e-01
1.390000000000000036e+01,9.610484438999999934e-01,5.813153462000000271e-01
1.409999999999999964e+01,2.032555546999999851e+00,1.133883618999999898e+00
1.430000000000000071e+01,7.894552972999999696e-01,6.233883837000000483e-01
1.450000000000000000e+01,3.881150290000000280e-02,1.883440868000000115e-02
1.469999999999999929e+01,1.872424903000000085e-01,1.813879615000000001e-01
1.490000000000000036e+01,1.200421398999999889e+00,9.861177774999999590e-01
1.509999999999999964e+01,1.117388368999999937e+00,6.057053210999999715e-01
1.530000000000000071e+01,2.400964291000000195e+00,1.205857791999999984e+00
1.550000000000000000e+01,4.492597601000000163e-01,3.193114995999999928e-01
1.569999999999999929e+01,2.265051185999999994e+00,1.035757939000000016e+00
1.590000000000000036e+01,6.499400213999999565e-01,4.748198161000000139e-01
1.610000000000000142e+01,5.352803497000000466e-01,2.568047148000000002e-01
1.630000000000000071e+01,4.314297469000000440e+00,1.913403586999999906e+00
1.650000000000000000e+01,4.812161732999999941e-01,3.165156358999999808e-01
1.669999999999999929e+01,7.191952026000000275e-01,4.699336270000000204e-01
1.689999999999999858e+01,4.433855062000000014e-01,3.104288550000000035e-01
1.710000000000000142e+01,1.069260968000000034e+00,1.066949820999999909e+00
1.730000000000000071e+01,1.347886235999999904e+00,1.124842896999999953e+00
1.750000000000000000e+01,3.288677838999999881e-01,2.781365692000000167e-01
1.769999999999999929e+01,4.538872321000000376e+00,2.868067557999999906e+00
1.789999999999999858e+01,1.650636857999999929e+00,1.788693899999999948e+00
1.810000000000000142e+01,1.004982733999999933e+00,9.356320421999999581e-01
1.830000000000000071e+01,2.758770499999999792e+00,1.815512814999999947e+00
1.850000000000000000e+01,5.153040510000000268e-02,5.447688603999999851e-02
1.869999999999999929e+01,1.984939454000000048e+00,1.463951500000000072e+00
1.889999999999999858e+01,6.319892516999999765e-01,3.692372890999999768e-01
1.910000000000000142e+01,1.997066651999999998e+00,1.348654548000000064e+00
1.930000000000000071e+01,1.450237229000000072e+00,1.131975925000000105e+00
1.950000000000000000e+01,1.292941340999999911e+00,6.348919725999999653e-01
1.969999999999999929e+01,1.048965353999999905e+00,7.060226460999999842e-01
1.989999999999999858e+01,9.380580385999999493e-02,9.092002729999999755e-02
2.010000000000000142e+01,5.671730583000000436e+00,2.947746373999999836e+00
2.030000000000000071e+01,1.283981494000000056e+00,1.065300412000000030e+00
2.050000000000000000e+01,2.827387531000000176e-01,1.708988167999999919e-01
2.069999999999999929e+01,1.528257325000000000e+00,1.073444247000000074e+00
2.089999999999999858e+01,6.891291896000000250e-01,4.396592252000000034e-01
2.110000000000000142e+01,7.724961548000000011e-01,5.134601844999999720e-01
2.130000000000000071e+01,1.041762905999999989e+00,5.858403331000000547e-01
2.150000000000000000e+01,2.890369897999999882e+00,2.371024493999999816e+00
2.169999999999999929e+01,2.888427500000000148e+00,1.516033503999999921e+00
2.189999999999999858e+01,2.449141834999999823e+00,1.859787365999999942e+00
2.210000000000000142e+01,2.077773173000000195e+00,1.192803228000000049e+00
2.230000000000000071e+01,1.574950983999999998e+00,1.093194573999999974e+00
2.250000000000000000e+01,7.285672507999999548e-01,6.950959502000000345e-01
2.269999999999999929e+01,7.825794729000000449e-02,6.826264300999999868e-02
2.289999999999999858e+01,1.468034880999999903e+00,1.040559667999999993e+00
2.310000000000000142e+01,8.450324178000000463e-01,8.355460799999999688e-01
2.330000000000000071e+01,9.064380160999999658e-01,9.737594575000000363e-01
2.350000000000000000e+01,2.582484161000000000e+00,2.470476963999999942e+00
2.369999999999999929e+01,2.790615683000000069e-01,2.777952745999999751e-01
2.389999999999999858e+01,1.066293098999999911e+00,1.094978355000000070e+00
2.410000000000000142e+01,8.348035362000000292e-01,5.963653642999999782e-01
2.430000000000000071e+01,2.181433928000000133e+00,1.367444571000000053e+00
2.450000000000000000e+01,1.693337125999999984e-02,1.332750815999999942e-02
2.469999999999999929e+01,3.718414082000000009e-01,3.783899981000000134e-01
2.489999999999999858e+01,2.381766307999999999e+00,2.238256030000000063e+00
2.510000000000000142e+01,2.308410519999999799e+00,1.221182055999999960e+00
2.530000000000000071e+01,1.184972624000000030e+00,9.835478021000000348e-01
2.550000000000000000e+01,8.812773866999999706e-02,8.426219839000000100e-02
2.569999999999999929e+01,1.925505962000000071e-02,1.916202743999999986e-02
2.589999999999999858e+01,2.039350059000000215e+00,1.318299144999999895e+00
2.610000000000000142e+01,8.892869541000000266e-01,6.463713920000000446e-01
2.630000000000000071e+01,1.091244797999999933e-01,7.785689547999999349e-02
2.650000000000000000e+01,7.947216223999999940e-01,5.290857423000000503e-01
2.669999999999999929e+01,5.686205919000000275e-01,4.376988169000000095e-01
2.689999999999999858e+01,2.783403870000000085e-02,3.213365316999999832e-02
2.710000000000000142e+01,1.323396892999999963e+00,8.935079218000000489e-01
2.730000000000000071e+01,1.069143044999999903e+00,8.733917881999999633e-01
2.750000000000000000e+01,1.150890323000000048e+00,1.002009098000000042e+00
2.769999999999999929e+01,1.908390655999999963e-01,2.024025811999999869e-01
2.789999999999999858e+01,2.420787423999999799e+00,1.925425058999999939e+00
2.810000000000000142e+01,1.947685780999999894e+00,1.023156530999999925e+00
2.830000000000000071e+01,1.576249869000000137e-02,1.663818471000000007e-02
2.850000000000000000e+01,8.018827213000000176e-02,7.814713229000000427e-02
2.869999999999999929e+01,1.577277027000000054e+00,1.077595136000000009e+00
2.889999999999999858e+01,1.438287349000000104e+00,1.372375061999999923e+00
2.910000000000000142e+01,8.036173539999999504e-02,9.561777841000000666e-02
2.930000000000000071e+01,1.989420089000000003e+00,1.985702040999999918e+00
2.950000000000000000e+01,2.687420675999999897e+00,1.399322026999999968e+00
2.969999999999999929e+01,2.162451473999999971e-02,1.489364355000000022e-02
2.989999999999999858e+01,3.559108025000000119e-01,3.441601879999999780e-01
3.010000000000000142e+01,1.080791640999999997e-02,6.522275242999999584e-03
3.030000000000000071e+01,1.043824757999999964e+00,1.161966304999999977e+00
3.050000000000000000e+01,6.764788846999999494e-01,7.047178291000000261e-01
3.069999999999999929e+01,4.533793507999999584e+00,2.526183586999999786e+00
3.089999999999999858e+01,4.227518131000000068e+00,2.440445079999999933e+00
3.110000000000000142e+01,9.912779203999999567e-02,8.150716076000000254e-02
3.130000000000000071e+01,5.329097234999999877e+00,2.269315220999999827e+00
3.150000000000000000e+01,9.613949489999999987e-01,7.436274693000000102e-01
3.169999999999999929e+01,2.489443265999999877e+00,1.265493712000000048e+00
3.189999999999999858e+01,3.664825747000000078e+00,2.264995927999999825e+00
3.210000000000000142e+01,1.428178254000000091e+00,9.144341454000000091e-01
3.229999999999999716e+01,1.296867218000000044e+00,9.636731989000000276e-01
3.250000000000000000e+01,2.875889282000000158e+00,1.607292825999999897e+00
3.270000000000000284e+01,4.406568485000000202e+00,2.941692081999999875e+00
3.289999999999999858e+01,3.002739029000000004e-01,2.377531838999999980e-01
3.310000000000000142e+01,8.238095713999999958e-01,5.387913466000000540e-01
3.329999999999999716e+01,2.436814893000000204e+00,1.334921354000000004e+00
3.350000000000000000e+01,3.679563034000000316e-02,3.896693950999999961e-02
3.370000000000000284e+01,1.713158642000000009e+00,1.350350576000000080e+00
3.389999999999999858e+01,2.787577279999999824e-01,2.932530570999999919e-01
3.410000000000000142e+01,3.322078335000000049e+00,1.946617935999999993e+00
3.429999999999999716e+01,2.076607964999999945e-01,2.202680656000000070e-01
3.450000000000000000e+01,6.590182337000000112e-01,6.654391064000000355e-01
3.470000000000000284e+01,2.637459453000000065e-01,1.432009733000000062e-01
3.489999999999999858e+01,2.148754053999999858e+00,1.454860417999999989e+00
3.510000000000000142e+01,1.237303373999999900e+00,5.781734133999999470e-01
3.529999999999999716e+01,3.362067963999999964e+00,1.226056905000000086e+00
3.550000000000000000e+01,8.126555296999999456e+00,2.060275132000000120e+00
3.570000000000000284e+01,2.711675225999999839e+01,4.091538232000000441e+00
3.589999999999999858e+01,5.816815688999999878e+01,5.940232230000000335e+00
3.610000000000000142e+01,9.788554705999999328e+01,7.639089524000000075e+00
3.629999999999999716e+01,1.726026505000000100e+02,1.047819793000000033e+01
3.650000000000000000e+01,2.075229062999999883e+02,1.141683225999999962e+01
3.670000000000000284e+01,2.355128163999999913e+02,1.207432505999999961e+01
3.689999999999999858e+01,2.035082605999999998e+02,1.142162888999999915e+01
3.710000000000000142e+01,1.496209294999999884e+02,9.556093478999999391e+00
3.729999999999999716e+01,8.256911162999999476e+01,7.232057913000000227e+00
3.750000000000000000e+01,3.830044894000000255e+01,4.863652475000000308e+00
3.770000000000000284e+01,1.269520160999999980e+01,2.765994216999999811e+00
3.789999999999999858e+01,3.799893380999999959e+00,1.329877374999999917e+00
3.810000000000000142e+01,2.717797119000000095e+00,1.310248929999999978e+00
3.829999999999999716e+01,1.364263411999999953e-01,1.193787037000000051e-01
3.850000000000000000e+01,3.418159297999999735e-01,3.942749796999999723e-01
3.870000000000000284e+01,1.735481040000000030e+00,1.295207224999999962e+00
3.889999999999999858e+01,1.839948905999999954e-02,1.796591051999999952e-02
3.910000000000000142e+01,5.942508135999999830e-01,4.533847227999999729e-01
3.929999999999999716e+01,1.733518536999999915e+00,1.308499797000000076e+00
3.950000000000000000e+01,3.922522938999999931e-01,3.507663402999999791e-01
3.970000000000000284e+01,1.221190543999999933e+00,1.194164620000000010e+00
3.989999999999999858e+01,1.419339396000000031e-01,1.472636633999999944e-01
4.010000000000000142e+01,3.074948654999999989e-02,3.765503419999999962e-02
4.029999999999999716e+01,1.536918513000000042e+00,1.358772711000000077e+00
4.050000000000000000e+01,2.299003449000000199e+00,1.535738186999999977e+00
4.070000000000000284e+01,6.765615136999999502e-01,5.135295187999999733e-01
4.089999999999999858e+01,9.451430214999999579e-01,4.621138490000000210e-01
4.110000000000000142e+01,3.837588481000000051e+00,2.317868448000000026e+00
4.129999999999999716e+01,3.999570542999999923e+00,1.201015975000000013e+00
4.150000000000000000e+01,1.317480562999999982e+01,2.334615590999999934e+00
4.170000000000000284e+01,2.229775141000000005e+01,2.877824888000000136e+00
4.189999999999999858e+01,5.022971207999999876e+01,4.520479885000000309e+00
4.210000000000000142e+01,7.445565417999999624e+01,5.486916566999999745e+00
4.229999999999999716e+01,9.674369543000000249e+01,6.282006832999999624e+00
4.250000000000000000e+01,1.063324061000000000e+02,6.673491402999999877e+00
4.270000000000000284e+01,1.190341829999999987e+02,6.941020207000000219e+00
4.289999999999999858e+01,9.782312435000000050e+01,6.363450953000000077e+00
4.310000000000000142e+01,7.533684938999999758e+01,5.544933390999999823e+00
4.329999999999999716e+01,4.892184175999999951e+01,4.399719295999999780e+00
4.350000000000000000e+01,2.045642553000000063e+01,2.843777242999999899e+00
4.370000000000000284e+01,1.362414627000000067e+01,2.247131861000000175e+00
4.389999999999999858e+01,3.176942178000000006e+00,1.098328324999999994e+00
4.410000000000000142e+01,2.370799174000000065e+00,7.636919517000000379e-01
4.429999999999999716e+01,2.923919351999999972e+00,8.609883486999999613e-01
4.450000000000000000e+01,2.472883583999999857e+00,3.699356872999999823e-01
4.470000000000000284e+01,4.447065592000000400e+00,1.539602472000000111e+00
4.489999999999999858e+01,3.173870173000000072e+00,7.999546843999999490e-01
4.510000000000000142e+01,3.984935507999999960e+00,7.177288698999999550e-01
4.529999999999999716e+01,2.616124558000000100e+00,8.835377851000000282e-01
4.550000000000000000e+01,2.541892693999999953e+00,6.690169762000000020e-01
4.570000000000000284e+01,1.112080364999999960e+00,6.290992076000000433e-01
4.589999999999999858e+01,2.268028021000000061e-01,9.864152129000000602e-02
4.610000000000000142e+01,1.188849760999999977e-01,6.977341793999999875e-02
4.629999999999999716e+01,6.755214713000000371e-02,5.098495975000000291e-02
4.650000000000000000e+01,5.506102649999999876e-01,3.191764004000000043e-01
4.670000000000000284e+01,1.004074627999999914e+00,5.495571756999999558e-01
4.689999999999999858e+01,2.047113863999999950e+00,1.162766237999999897e+00
4.710000000000000142e+01,9.660217715000000149e-01,9.417584276999999560e-01
4.729999999999999716e+01,3.654872967000000195e-01,3.069474167999999836e-01
4.750000000000000000e+01,1.351027659000000103e+00,9.885592633999999990e-01
4.770000000000000284e+01,1.768001190999999972e+00,1.129811080999999939e+00
4.789999999999999858e+01,1.524406308000000099e+00,7.565287944999999903e-01
4.810000000000000142e+01,4.831871029000000053e-03,2.936432052999999893e-03
4.829999999999999716e+01,2.769084322999999959e+00,1.918866546999999922e+00
4.850000000000000000e+01,2.751745898999999884e+00,1.661044224000000069e+00
4.870000000000000284e+01,1.194241107000000079e+00,5.773750730000000164e-01
4.889999999999999858e+01,2.383341068999999916e-03,1.827825083000000038e-03
4.910000000000000142e+01,1.246201528000000058e+00,8.601278275999999501e-01
4.929999999999999716e+01,2.430536303999999981e-02,1.519281410999999936e-02
4.950000000000000000e+01,3.273288851000000221e-01,2.476898091999999996e-01
4.970000000000000284e+01,6.025197676000000335e-01,4.616185763000000275e-01
4.989999999999999858e+01,1.672333942000000073e+00,9.739362609999999698e-01
5.010000000000000142e+01,1.978249388000000053e+00,1.188112993999999922e+00
5.029999999999999716e+01,8.460302444999999727e-01,5.154988764000000279e-01
5.050000000000000000e+01,1.010384297000000098e+00,7.958897750000000215e-01
5.070000000000000284e+01,9.660736798000000292e-01,4.925240304999999874e-01
5.089999999999999858e+01,1.167001951999999898e+00,7.034924743999999563e-01
5.110000000000000142e+01,1.676405268999999976e+00,1.111368891999999997e+00
5.129999999999999716e+01,9.662719512999999871e-01,6.201043437000000047e-01
5.150000000000000000e+01,8.021482327000000190e-01,2.319999759999999966e-01
5.170000000000000284e+01,1.610006940000000109e+00,5.742834634000000271e-01
5.189999999999999858e+01,9.946351452999999676e-01,1.786691317000000112e-01
5.210000000000000142e+01,2.173268955999999807e+00,9.778227010000000163e-01
5.229999999999999716e+01,1.344890555000000099e+00,2.045800415000000039e-01
5.250000000000000000e+01,1.226484447999999894e+00,2.477681801000000128e-01
5.270000000000000284e+01,2.943637583000000113e+00,1.440661485999999991e+00
5.289999999999999858e+01,1.212059030000000037e+00,3.090901501000000162e-01
5.310000000000000142e+01,1.016012171999999936e+00,5.349028542000000552e-01
5.329999999999999716e+01,1.036842685000000097e+00,6.908629843000000381e-01
5.350000000000000000e+01,7.664975508000000382e-01,4.598583703999999939e-01
5.370000000000000284e+01,6.798229287999999482e-01,3.087035298999999955e-01
5.389999999999999858e+01,1.806378876999999994e+00,9.375775048000000167e-01
5.410000000000000142e+01,1.223707029000000057e+00,7.540418477000000452e-01
5.429999999999999716e+01,3.684680819000000218e-01,3.337989560999999883e-01
5.450000000000000000e+01,1.458810774999999893e+00,1.177890148999999997e+00
5.470000000000000284e+01,1.267537845999999968e+00,1.034534330000000057e+00
5.489999999999999858e+01,3.045527291999999830e-01,2.756523650000000103e-01
5.510000000000000142e+01,2.577346292000000094e-01,2.302475241999999978e-01
5.529999999999999716e+01,3.052739603999999884e-01,2.490565587000000136e-01
5.550000000000000000e+01,2.142223748000000039e-01,1.624913668999999894e-01
5.570000000000000284e+01,6.486600900000000225e-01,5.819716682000000141e-01
5.589999999999999858e+01,2.583926040000000257e-01,2.455295120000000053e-01
5.610000000000000142e+01,3.700080302000000043e-01,4.109366132999999754e-01
5.629999999999999716e+01,3.688545784999999744e-01,2.688692584999999857e-01
5.650000000000000000e+01,2.760967615000000097e-01,2.212693582999999964e-01
5.670000000000000284e+01,1.680683930000000048e+00,1.243483217000000085e+00
5.689999999999999858e+01,4.106206567000000085e+00,2.009009731999999993e+00
5.710000000000000142e+01,4.440939675000000086e+00,2.271265849000000170e+00
5.729999999999999716e+01,4.027339648999999966e+00,2.555980599999999825e+00
5.750000000000000000e+01,6.031720798999999911e-01,3.609181434000000022e-01
5.770000000000000284e+01,1.278803955999999964e+00,8.701317803000000461e-01
5.789999999999999858e+01,1.367435393000000055e+00,1.306552404000000056e+00
5.810000000000000142e+01,2.321443057000000199e+00,1.614343743000000053e+00
5.829999999999999716e+01,3.776689940999999884e-02,3.817365844000000091e-02
5.850000000000000000e+01,3.931072729999999793e-01,2.640278173000000228e-01
5.870000000000000284e+01,4.739249488999999760e-01,5.053083594999999706e-01
5.889999999999999858e+01,9.880571891999999634e-01,6.436892508999999540e-01
5.910000000000000142e+01,9.798365347999999919e-01,9.072889129000000219e-01
5.929999999999999716e+01,2.340766493999999920e+00,1.677963525000000011e+00
5.950000000000000000e+01,1.390400142000000061e+00,8.429548275999999563e-01
5.970000000000000284e+01,2.450766772999999787e+00,1.090908803000000038e+00
5.989999999999999858e+01,2.923184608000000129e+00,1.373462152999999963e+00
6.010000000000000142e+01,8.228976915000000503e+00,2.118693571000000109e+00
6.029999999999999716e+01,9.445041509999999363e+00,2.433226191000000149e+00
6.050000000000000000e+01,9.118164738000000824e+00,2.017407314000000174e+00
6.070000000000000284e+01,3.123259069999999937e+01,4.489334161999999573e+00
6.089999999999999858e+01,2.968216950000000054e+01,3.999421256000000202e+00
6.110000000000000142e+01,3.847177735000000354e+01,4.411362346999999851e+00
6.129999999999999716e+01,7.110052509999999870e+01,6.393675455000000341e+00
6.150000000000000000e+01,7.986453633000000707e+01,6.781620325999999643e+00
6.170000000000000284e+01,9.971761467000000323e+01,7.497870490000000387e+00
6.189999999999999858e+01,9.112052513000000431e+01,7.365907839000000124e+00
6.210000000000000142e+01,8.409105667999999412e+01,6.893984773999999760e+00
6.229999999999999716e+01,1.005609350999999947e+02,7.735698420000000297e+00
6.250000000000000000e+01,6.339293299999999931e+01,6.092685434999999927e+00
6.270000000000000284e+01,4.751991668000000146e+01,5.045298584000000197e+00
6.289999999999999858e+01,2.887279099999999943e+01,4.133405202999999695e+00
6.310000000000000142e+01,2.631845862999999852e+01,3.964588673999999813e+00
6.329999999999999716e+01,1.374621753999999996e+01,2.857134432000000057e+00
6.350000000000000000e+01,6.890808587999999624e+00,1.865334008999999904e+00
6.370000000000000284e+01,5.583295783999999706e+00,1.791327595999999911e+00
6.389999999999999858e+01,2.655755425000000169e+00,1.839409410000000022e+00
6.409999999999999432e+01,3.244643857999999881e+00,1.418203737000000020e+00
6.429999999999999716e+01,8.905774110999999937e-01,5.171150375999999937e-01
6.450000000000000000e+01,2.540844783999999912e+00,1.531491289000000089e+00
6.470000000000000284e+01,5.133344994999999855e-02,5.371643579000000279e-02
6.490000000000000568e+01,1.320650579999999907e+00,1.140376854999999967e+00
6.509999999999999432e+01,9.340281880999999897e-01,6.082078877000000050e-01
6.529999999999999716e+01,6.913474032999999963e-01,6.860070039000000230e-01
6.550000000000000000e+01,4.332987835000000065e-01,5.306620028999999850e-01
6.570000000000000284e+01,1.049539482999999919e-02,8.955389184000000363e-03
6.590000000000000568e+01,1.754147633000000095e+00,1.001902258000000101e+00
6.609999999999999432e+01,7.227627991999999724e-01,6.471405776999999970e-01
6.629999999999999716e+01,8.683299045999999521e-02,5.705570732000000284e-02
6.650000000000000000e+01,1.397594245000000068e+00,6.874764730000000323e-01
6.670000000000000284e+01,4.910580030999999734e-01,5.390317320999999939e-01
6.690000000000000568e+01,2.236491238999999964e-01,1.564353732000000052e-01
6.709999999999999432e+01,1.813311120999999915e+00,1.092835591999999911e+00
6.729999999999999716e+01,8.938969989999999699e-01,7.998205869000000190e-01
6.750000000000000000e+01,3.434990673000000161e-01,2.450456873000000091e-01
6.770000000000000284e+01,5.432415740999999576e-01,4.686773954999999825e-01
6.790000000000000568e+01,1.224147045999999905e+00,7.673416650000000061e-01
6.809999999999999432e+01,1.423387453000000136e-01,1.492400694000000083e-01
6.829999999999999716e+01,1.129588618999999960e+00,1.026863473999999998e+00
6.850000000000000000e+01,1.964787754999999914e+00,1.194598824999999920e+00
6.870000000000000284e+01,1.389811424999999989e+00,1.443203679000000017e+00
6.890000000000000568e+01,1.133175483000000039e+00,1.044081760000000081e+00
6.909999999999999432e+01,1.559050160999999879e-01,1.591660946000000021e-01
6.929999999999999716e+01,1.563711909000000011e+00,1.449664422999999980e+00
6.950000000000000000e+01,5.977787218000000236e-01,6.480158618000000370e-01
6.970000000000000284e+01,1.512212463000000007e+00,8.684906319999999846e-01
6.990000000000000568e+01,1.594924153000000011e+00,8.462364767000000176e-01
7.009999999999999432e+01,2.762136581000000035e+00,1.438482591000000088e+00
7.029999999999999716e+01,2.566488210000000159e+00,1.504762485999999955e+00
7.050000000000000000e+01,1.257247353999999984e+00,8.448238743999999523e-01
7.070000000000000284e+01,2.975924099000000211e+00,1.854314854999999929e+00
7.090000000000000568e+01,1.927824403000000020e+00,1.168581032999999936e+00
7.109999999999999432e+01,1.987360234000000059e+00,1.158019297000000059e+00
7.129999999999999716e+01,1.351680111000000073e+00,6.667489686999999998e-01
7.150000000000000000e+01,3.735711314000000005e+00,1.903069523000000096e+00
7.170000000000000284e+01,5.971059158999999505e-01,3.686778687999999748e-01
7.190000000000000568e+01,4.785343774000000217e+00,1.933266055000000039e+00
7.209999999999999432e+01,9.750398483999999755e+00,3.037624892999999826e+00
7.229999999999999716e+01,1.176184283000000086e+01,3.433989387000000004e+00
7.250000000000000000e+01,1.950286417999999955e+01,4.516428945000000361e+00
7.270000000000000284e+01,2.571386701999999858e+01,4.942013732999999576e+00
7.290000000000000568e+01,3.807260730000000137e+01,6.124869488999999945e+00
7.309999999999999432e+01,5.088315773000000064e+01,7.272748749999999873e+00
7.329999999999999716e+01,7.089580497000000037e+01,8.456300647000000836e+00
7.350000000000000000e+01,8.925499528000000282e+01,9.403288661999999576e+00
7.370000000000000284e+01,9.317579243000000133e+01,9.341023299999999807e+00
7.390000000000000568e+01,1.116061686000000037e+02,1.062179041999999995e+01
7.409999999999999432e+01,1.282689466999999865e+02,1.134513474999999971e+01
7.429999999999999716e+01,1.181415042000000000e+02,1.082388414999999959e+01
7.450000000000000000e+01,1.104518374999999963e+02,1.045197377999999944e+01
7.470000000000000284e+01,1.041892866000000026e+02,1.012962613999999917e+01
7.490000000000000568e+01,7.254149771000000158e+01,8.511775887000000651e+00
7.509999999999999432e+01,7.654534094000000266e+01,8.520730240000000677e+00
7.529999999999999716e+01,5.672462219999999888e+01,7.589766670000000381e+00
7.550000000000000000e+01,3.876219198999999804e+01,6.160118242000000244e+00
7.570000000000000284e+01,2.236236549999999923e+01,4.303017357999999959e+00
7.590000000000000568e+01,2.895836183000000119e+01,5.316755817999999856e+00
7.609999999999999432e+01,1.569722875999999978e+01,3.367089779000000060e+00
7.629999999999999716e+01,1.948444642000000115e+01,3.741725762999999816e+00
7.650000000000000000e+01,1.145174375999999938e+01,1.915305355000000098e+00
7.670000000000000284e+01,1.263735924999999938e+01,2.342017114999999983e+00
7.690000000000000568e+01,1.695173150999999834e+01,2.635954585999999988e+00
7.709999999999999432e+01,1.716913120999999975e+01,2.511150372999999991e+00
7.729999999999999716e+01,2.741828066000000064e+01,3.027641426999999830e+00
7.750000000000000000e+01,2.941567640999999966e+01,2.929168618999999918e+00
7.770000000000000284e+01,3.283052935999999988e+01,3.124825697999999985e+00
7.790000000000000568e+01,3.206506542000000337e+01,3.170462500999999822e+00
7.809999999999999432e+01,3.696810328000000112e+01,3.393085317000000156e+00
7.829999999999999716e+01,3.221769643999999744e+01,3.161976085000000047e+00
7.850000000000000000e+01,2.784743972000000056e+01,2.793158431999999802e+00
7.870000000000000284e+01,2.530659418999999843e+01,2.722152154000000213e+00
7.890000000000000568e+01,2.426049662000000140e+01,2.657602338999999869e+00
7.909999999999999432e+01,1.512863639999999954e+01,2.060386840000000053e+00
7.929999999999999716e+01,1.184451390999999987e+01,2.048479297000000088e+00
7.950000000000000000e+01,1.572286070000000002e+01,2.336005854000000159e+00
7.970000000000000284e+01,8.583600224999999639e+00,1.629674821000000051e+00
7.990000000000000568e+01,5.841742482999999986e+00,1.357418621999999964e+00
8.009999999999999432e+01,3.911993765000000067e+00,1.043733444999999982e+00
8.029999999999999716e+01,3.571292311000000108e+00,1.100090857000000089e+00
8.050000000000000000e+01,2.951612680000000211e+00,1.344971721000000064e+00
8.070000000000000284e+01,6.818360366000000283e-01,3.535485908000000066e-01
8.090000000000000568e+01,1.822955440000000094e+00,9.644227565999999863e-01
8.109999999999999432e+01,2.391515478000000028e-01,1.813536836000000096e-01
8.129999999999999716e+01,2.110791898000000000e+00,1.159244050000000081e+00
8.150000000000000000e+01,7.403583270000000383e-01,5.620636715000000283e-01
8.170000000000000284e+01,1.916843677999999999e-03,1.395823979000000020e-03
8.190000000000000568e+01,9.445358069999999495e-01,8.970622896000000068e-01
8.209999999999999432e+01,7.760247777999999819e-02,9.198028770999999715e-02
8.229999999999999716e+01,2.172972344999999805e+00,1.313106828000000004e+00
8.250000000000000000e+01,2.108972967000000143e+00,1.141733053000000053e+00
8.270000000000000284e+01,1.410158588000000046e+00,8.225061120000000114e-01
8.290000000000000568e+01,5.908720692000000163e-01,5.006652003999999545e-01
8.309999999999999432e+01,6.387559017999999700e-01,4.891437198999999958e-01
8.329999999999999716e+01,4.373316413000000180e-01,2.513576144999999928e-01
8.350000000000000000e+01,4.141672341000000174e-02,4.386263281999999708e-02
8.370000000000000284e+01,1.122859226999999960e+00,6.122531829999999786e-01
8.390000000000000568e+01,2.704432209000000142e+00,1.587466226999999952e+00
8.409999999999999432e+01,4.199790807000000070e-01,4.502267162999999961e-01
8.429999999999999716e+01,1.398016890999999928e+00,1.108761853999999936e+00
8.450000000000000000e+01,5.346666118999999773e-01,3.271232188000000041e-01
8.470000000000000284e+01,1.993728713999999957e+00,1.228345617000000001e+00
8.490000000000000568e+01,1.361733807000000018e+00,1.196912194999999901e+00
8.509999999999999432e+01,2.430927783999999869e-01,2.084397564000000092e-01
8.529999999999999716e+01,2.407969393000000125e+00,1.502182401000000000e+00
8.550000000000000000e+01,4.172143672999999858e-02,3.174772580000000122e-02
8.570000000000000284e+01,9.552445481000000349e-01,7.903221397999999898e-01
8.590000000000000568e+01,8.311052854999999573e-01,9.088932294999999550e-01
8.609999999999999432e+01,1.121015826000000049e+00,9.726156960999999823e-01
8.629999999999999716e+01,1.469129431000000041e+00,9.732602809999999494e-01
8.650000000000000000e+01,9.665968900000000419e-01,7.705793803999999581e-01
8.670000000000000284e+01,1.098218138000000010e+00,7.428748697999999484e-01
8.690000000000000568e+01,2.959003656000000149e+00,1.307273904000000098e+00
8.709999999999999432e+01,2.011995762999999826e+00,1.160156466000000108e+00
8.729999999999999716e+01,2.339659516000000217e+00,1.802893209999999913e+00
8.750000000000000000e+01,5.332508632000000359e-01,3.558482271000000252e-01
8.770000000000000284e+01,2.332031215999999851e+00,1.314972253000000091e+00
8.790000000000000568e+01,3.155552137000000035e-01,3.626722679000000116e-01
8.809999999999999432e+01,1.107202272999999959e+00,9.370155950999999872e-01
8.829999999999999716e+01,7.772269524999999568e-01,5.146048886999999850e-01
8.850000000000000000e+01,4.932078510999999589e-03,3.559153035000000090e-03
8.870000000000000284e+01,7.148331875000000224e-01,6.232438168999999695e-01
8.890000000000000568e+01,2.204851176000000024e-02,2.133822397000000037e-02
8.909999999999999432e+01,3.040235861000000206e+00,1.864354998000000041e+00
8.929999999999999716e+01,1.413115685999999926e-01,1.054260823999999958e-01
8.950000000000000000e+01,4.778096109000000147e-01,3.575327549000000271e-01
8.970000000000000284e+01,9.140520919000000299e-01,6.327158024000000269e-01
8.990000000000000568e+01,1.774187004000000067e+00,9.560874350000000410e-01
9.009999999999999432e+01,1.105007593999999926e+00,5.995092600000000438e-01
9.029999999999999716e+01,1.282321757999999923e+00,5.361164585000000038e-01
9.050000000000000000e+01,2.153748474999999996e+00,1.261328492999999940e+00
9.070000000000000284e+01,2.658461528000000129e+00,1.045891705999999921e+00
9.090000000000000568e+01,1.599513635999999961e+00,5.459089835999999529e-01
9.109999999999999432e+01,2.838855812999999895e+00,7.634986670000000197e-01
9.129999999999999716e+01,4.899468880999999776e+00,9.556515971000000276e-01
9.150000000000000000e+01,6.333406236000000078e+00,1.327424715000000033e+00
9.170000000000000284e+01,9.654098495999999585e+00,1.989474125000000093e+00
9.190000000000000568e+01,1.203183016000000016e+01,1.677872092999999953e+00
9.209999999999999432e+01,1.200787786000000068e+01,1.765722052000000097e+00
9.229999999999999716e+01,1.166556006999999973e+01,1.806660896999999988e+00
9.250000000000000000e+01,1.321902457999999925e+01,1.873304276999999907e+00
9.270000000000000284e+01,1.391760254000000074e+01,1.609274767999999911e+00
9.290000000000000568e+01,1.622120092999999841e+01,1.754588782999999985e+00
9.309999999999999432e+01,1.784187637000000137e+01,2.016791317000000028e+00
9.329999999999999716e+01,1.560686646999999994e+01,1.697806119000000002e+00
9.350000000000000000e+01,1.408282230999999918e+01,1.618453297999999929e+00
9.370000000000000284e+01,1.721953505999999834e+01,1.831087737000000049e+00
9.390000000000000568e+01,1.630285277000000121e+01,1.786790922000000004e+00
9.409999999999999432e+01,1.711866820999999916e+01,1.956510490000000102e+00
9.429999999999999716e+01,1.199851349999999961e+01,1.460798859999999921e+00
9.450000000000000000e+01,9.999908281999999815e+00,1.365431636000000060e+00
9.470000000000000284e+01,1.086683007999999973e+01,1.520435814999999913e+00
9.490000000000000568e+01,8.182313996999999617e+00,1.225959789000000022e+00
9.509999999999999432e+01,7.210994966000000339e+00,1.221881210999999912e+00
9.529999999999999716e+01,4.451907193000000262e+00,8.708021042000000378e-01
9.550000000000000000e+01,4.965328399999999753e+00,1.381254549999999970e+00
9.570000000000000284e+01,2.368793811999999832e+00,6.339553258000000246e-01
9.590000000000000568e+01,2.900145535000000052e+00,7.943066251999999494e-01
9.609999999999999432e+01,3.209153054000000171e+00,1.120492242000000083e+00
9.629999999999999716e+01,9.266615304999999969e-01,3.069035434999999867e-01
9.650000000000000000e+01,2.660064601000000195e+00,1.561725161000000028e+00
9.670000000000000284e+01,1.131188305000000005e+00,5.225612488999999972e-01
9.690000000000000568e+01,3.122187563999999860e+00,1.526171417999999891e+00
9.709999999999999432e+01,5.718441719000000312e-01,3.436673859000000109e-01
9.729999999999999716e+01,6.287424290000000193e-02,4.823764326999999824e-02
9.750000000000000000e+01,7.953541414999999448e-01,4.510172704000000032e-01
9.770000000000000284e+01,6.807023063999999568e-01,5.030943059000000384e-01
9.790000000000000568e+01,9.541814257999999827e-01,4.520792848999999891e-01
9.809999999999999432e+01,1.406426866999999969e+00,7.829905612999999986e-01
9.829999999999999716e+01,2.861979585000000159e-01,1.049556509999999970e-01
9.850000000000000000e+01,1.569357104000000058e+00,1.058796966000000062e+00
9.870000000000000284e+01,6.976031141999999852e-01,4.564145963999999833e-01
9.890000000000000568e+01,1.453435781000000038e+00,1.076823035000000095e+00
9.909999999999999432e+01,2.080966018999999889e+00,1.200983914999999902e+00
9.929999999999999716e+01,9.724392589999999448e-01,3.642361049000000239e-01
9.950000000000000000e+01,1.855621681999999883e-01,5.329908641000000169e-02
9.970000000000000284e+01,4.074206220000000100e-01,1.335440536999999983e-01
9.990000000000000568e+01,2.142955838999999862e+00,1.637724685000000013e+00
