x_axis,Intensity,Error
2.500000000000000052e-03,1.093161073000000000e+10,2.502437269999999925e+07
7.499999999999999722e-03,1.094553763000000000e+10,1.444576181000000052e+07
1.250000000000000069e-02,1.094024076000000000e+10,1.118671433999999985e+07
1.750000000000000167e-02,1.095082723000000000e+10,9.460192372999999672e+06
2.249999999999999917e-02,1.091408461000000000e+10,8.329361923000000417e+06
2.750000000000000014e-02,1.093715284000000000e+10,7.541605259999999776e+06
3.250000000000000111e-02,1.091962773000000000e+10,6.932086451999999583e+06
3.749999999999999861e-02,1.093366556000000000e+10,6.458189486999999732e+06
4.250000000000000305e-02,1.092104683000000000e+10,6.063033728000000119e+06
4.750000000000000056e-02,1.093493367000000000e+10,5.738481339999999851e+06
5.249999999999999806e-02,1.036482763000000000e+10,5.314783167000000365e+06
5.750000000000000250e-02,8.439311821000000000e+09,4.582696014999999665e+06
6.250000000000000000e-02,5.961791803000000000e+09,3.694663148000000045e+06
6.750000000000000444e-02,3.493350862000000000e+09,2.721623983000000007e+06
7.249999999999999500e-02,1.356962482000000000e+09,1.637085243000000017e+06
7.749999999999999944e-02,1.554729475000000000e+08,5.358177728000000352e+05
8.250000000000000389e-02,2.783052005999999819e+05,2.203600437999999849e+04
8.749999999999999445e-02,0.000000000000000000e+00,0.000000000000000000e+00
9.249999999999999889e-02,0.000000000000000000e+00,0.000000000000000000e+00
9.750000000000000333e-02,0.000000000000000000e+00,0.000000000000000000e+00
1.024999999999999939e-01,0.000000000000000000e+00,0.000000000000000000e+00
1.074999999999999983e-01,0.000000000000000000e+00,0.000000000000000000e+00
1.125000000000000028e-01,0.000000000000000000e+00,0.000000000000000000e+00
1.174999999999999933e-01,0.000000000000000000e+00,0.000000000000000000e+00
1.224999999999999978e-01,0.000000000000000000e+00,0.000000000000000000e+00
1.275000000000000022e-01,0.000000000000000000e+00,0.000000000000000000e+00
1.325000000000000067e-01,0.000000000000000000e+00,0.000000000000000000e+00
1.375000000000000111e-01,0.000000000000000000e+00,0.000000000000000000e+00
1.424999999999999878e-01,0.000000000000000000e+00,0.000000000000000000e+00
1.474999999999999922e-01,0.000000000000000000e+00,0.000000000000000000e+00
1.524999999999999967e-01,0.000000000000000000e+00,0.000000000000000000e+00
1.575000000000000011e-01,0.000000000000000000e+00,0.000000000000000000e+00
1.625000000000000056e-01,0.000000000000000000e+00,0.000000000000000000e+00
1.675000000000000100e-01,0.000000000000000000e+00,0.000000000000000000e+00
1.724999999999999867e-01,0.000000000000000000e+00,0.000000000000000000e+00
1.774999999999999911e-01,0.000000000000000000e+00,0.000000000000000000e+00
1.824999999999999956e-01,0.000000000000000000e+00,0.000000000000000000e+00
1.875000000000000000e-01,0.000000000000000000e+00,0.000000000000000000e+00
1.925000000000000044e-01,0.000000000000000000e+00,0.000000000000000000e+00
1.975000000000000089e-01,0.000000000000000000e+00,0.000000000000000000e+00
2.025000000000000133e-01,0.000000000000000000e+00,0.000000000000000000e+00
2.074999999999999900e-01,0.000000000000000000e+00,0.000000000000000000e+00
2.124999999999999944e-01,0.000000000000000000e+00,0.000000000000000000e+00
2.174999999999999989e-01,0.000000000000000000e+00,0.000000000000000000e+00
2.225000000000000033e-01,0.000000000000000000e+00,0.000000000000000000e+00
2.275000000000000078e-01,0.000000000000000000e+00,0.000000000000000000e+00
2.325000000000000122e-01,0.000000000000000000e+00,0.000000000000000000e+00
2.374999999999999889e-01,0.000000000000000000e+00,0.000000000000000000e+00
2.424999999999999933e-01,0.000000000000000000e+00,0.000000000000000000e+00
2.474999999999999978e-01,0.000000000000000000e+00,0.000000000000000000e+00
2.525000000000000022e-01,0.000000000000000000e+00,0.000000000000000000e+00
2.575000000000000067e-01,0.000000000000000000e+00,0.000000000000000000e+00
2.625000000000000111e-01,0.000000000000000000e+00,0.000000000000000000e+00
2.675000000000000155e-01,0.000000000000000000e+00,0.000000000000000000e+00
2.725000000000000200e-01,0.000000000000000000e+00,0.000000000000000000e+00
2.775000000000000244e-01,0.000000000000000000e+00,0.000000000000000000e+00
2.824999999999999734e-01,0.000000000000000000e+00,0.000000000000000000e+00
2.874999999999999778e-01,0.000000000000000000e+00,0.000000000000000000e+00
2.924999999999999822e-01,0.000000000000000000e+00,0.000000000000000000e+00
2.974999999999999867e-01,0.000000000000000000e+00,0.000000000000000000e+00
3.024999999999999911e-01,0.000000000000000000e+00,0.000000000000000000e+00
3.074999999999999956e-01,0.000000000000000000e+00,0.000000000000000000e+00
3.125000000000000000e-01,0.000000000000000000e+00,0.000000000000000000e+00
3.175000000000000044e-01,0.000000000000000000e+00,0.000000000000000000e+00
3.225000000000000089e-01,0.000000000000000000e+00,0.000000000000000000e+00
3.275000000000000133e-01,0.000000000000000000e+00,0.000000000000000000e+00
3.325000000000000178e-01,0.000000000000000000e+00,0.000000000000000000e+00
3.375000000000000222e-01,0.000000000000000000e+00,0.000000000000000000e+00
3.425000000000000266e-01,0.000000000000000000e+00,0.000000000000000000e+00
3.474999999999999756e-01,0.000000000000000000e+00,0.000000000000000000e+00
3.524999999999999800e-01,0.000000000000000000e+00,0.000000000000000000e+00
3.574999999999999845e-01,0.000000000000000000e+00,0.000000000000000000e+00
3.624999999999999889e-01,0.000000000000000000e+00,0.000000000000000000e+00
3.674999999999999933e-01,0.000000000000000000e+00,0.000000000000000000e+00
3.724999999999999978e-01,0.000000000000000000e+00,0.000000000000000000e+00
3.775000000000000022e-01,0.000000000000000000e+00,0.000000000000000000e+00
3.825000000000000067e-01,0.000000000000000000e+00,0.000000000000000000e+00
3.875000000000000111e-01,0.000000000000000000e+00,0.000000000000000000e+00
3.925000000000000155e-01,0.000000000000000000e+00,0.000000000000000000e+00
3.975000000000000200e-01,0.000000000000000000e+00,0.000000000000000000e+00
4.025000000000000244e-01,0.000000000000000000e+00,0.000000000000000000e+00
4.074999999999999734e-01,0.000000000000000000e+00,0.000000000000000000e+00
4.124999999999999778e-01,0.000000000000000000e+00,0.000000000000000000e+00
4.174999999999999822e-01,0.000000000000000000e+00,0.000000000000000000e+00
4.224999999999999867e-01,0.000000000000000000e+00,0.000000000000000000e+00
4.274999999999999911e-01,0.000000000000000000e+00,0.000000000000000000e+00
4.324999999999999956e-01,0.000000000000000000e+00,0.000000000000000000e+00
4.375000000000000000e-01,0.000000000000000000e+00,0.000000000000000000e+00
4.425000000000000044e-01,0.000000000000000000e+00,0.000000000000000000e+00
4.475000000000000089e-01,0.000000000000000000e+00,0.000000000000000000e+00
4.525000000000000133e-01,0.000000000000000000e+00,0.000000000000000000e+00
4.575000000000000178e-01,0.000000000000000000e+00,0.000000000000000000e+00
4.625000000000000222e-01,0.000000000000000000e+00,0.000000000000000000e+00
4.675000000000000266e-01,0.000000000000000000e+00,0.000000000000000000e+00
4.724999999999999756e-01,0.000000000000000000e+00,0.000000000000000000e+00
4.774999999999999800e-01,0.000000000000000000e+00,0.000000000000000000e+00
4.824999999999999845e-01,0.000000000000000000e+00,0.000000000000000000e+00
4.874999999999999889e-01,0.000000000000000000e+00,0.000000000000000000e+00
4.924999999999999933e-01,0.000000000000000000e+00,0.000000000000000000e+00
4.974999999999999978e-01,0.000000000000000000e+00,0.000000000000000000e+00
