x_axis,Intensity,Error
8.935180413000000333e-04,7.764132395000000000e+10,4.351072049000000209e+07
2.680554123999999861e-03,7.766493524000000000e+10,2.512420433999999985e+07
4.467590205999999627e-03,7.768608480000000000e+10,1.946325089000000060e+07
6.254626289000000255e-03,7.767719163000000000e+10,1.644764860999999940e+07
8.041662370999999587e-03,7.675489974000000000e+10,1.442188466000000015e+07
9.828698453999999349e-03,7.414108149000000000e+10,1.282219842999999970e+07
1.161573454000000040e-02,7.109437865000000000e+10,1.155029114000000060e+07
1.340277062000000061e-02,6.760323484000000000e+10,1.048601666999999993e+07
1.518980670000000081e-02,6.400626751000000000e+10,9.585139680999999866e+06
1.697684278000000102e-02,6.041545937000000000e+10,8.809176482000000775e+06
1.876387887000000032e-02,5.666882529000000000e+10,8.116561207999999635e+06
2.055091494999999879e-02,5.110322983000000000e+10,7.371166599000000395e+06
2.233795103000000074e-02,4.123102565000000000e+10,6.361597292999999598e+06
2.412498710999999921e-02,2.843461350000000000e+10,5.095899218999999575e+06
2.591202319999999851e-02,1.538369169000000000e+10,3.633581873000000138e+06
2.769905928000000045e-02,5.145634253000000000e+09,2.052533121999999974e+06
2.948609535999999892e-02,7.374084902999999523e+08,7.635603939000000246e+05
3.127313143999999739e-02,2.004192396000000089e+07,1.251199311000000016e+05
3.306016752999999669e-02,0.000000000000000000e+00,0.000000000000000000e+00
3.484720361000000211e-02,0.000000000000000000e+00,0.000000000000000000e+00
3.663423969000000058e-02,0.000000000000000000e+00,0.000000000000000000e+00
3.842127576999999905e-02,0.000000000000000000e+00,0.000000000000000000e+00
4.020831185999999835e-02,0.000000000000000000e+00,0.000000000000000000e+00
4.199534793999999682e-02,0.000000000000000000e+00,0.000000000000000000e+00
4.378238402000000223e-02,0.000000000000000000e+00,0.000000000000000000e+00
4.556942010000000071e-02,0.000000000000000000e+00,0.000000000000000000e+00
4.735645619000000001e-02,0.000000000000000000e+00,0.000000000000000000e+00
4.914349226999999848e-02,0.000000000000000000e+00,0.000000000000000000e+00
5.093052834999999695e-02,0.000000000000000000e+00,0.000000000000000000e+00
5.271756443000000236e-02,0.000000000000000000e+00,0.000000000000000000e+00
5.450460052000000166e-02,0.000000000000000000e+00,0.000000000000000000e+00
5.629163660000000013e-02,0.000000000000000000e+00,0.000000000000000000e+00
5.807867267999999861e-02,0.000000000000000000e+00,0.000000000000000000e+00
5.986570875999999708e-02,0.000000000000000000e+00,0.000000000000000000e+00
6.165274485000000332e-02,0.000000000000000000e+00,0.000000000000000000e+00
6.343978092999999485e-02,0.000000000000000000e+00,0.000000000000000000e+00
6.522681700999999332e-02,0.000000000000000000e+00,0.000000000000000000e+00
6.701385309000000567e-02,0.000000000000000000e+00,0.000000000000000000e+00
6.880088918000000497e-02,0.000000000000000000e+00,0.000000000000000000e+00
7.058792526000000345e-02,0.000000000000000000e+00,0.000000000000000000e+00
7.237496134000000192e-02,0.000000000000000000e+00,0.000000000000000000e+00
7.416199742000000039e-02,0.000000000000000000e+00,0.000000000000000000e+00
7.594903350999999969e-02,0.000000000000000000e+00,0.000000000000000000e+00
7.773606958999999816e-02,0.000000000000000000e+00,0.000000000000000000e+00
7.952310566999999664e-02,0.000000000000000000e+00,0.000000000000000000e+00
8.131014174999999511e-02,0.000000000000000000e+00,0.000000000000000000e+00
8.309717783999999441e-02,0.000000000000000000e+00,0.000000000000000000e+00
8.488421392000000676e-02,0.000000000000000000e+00,0.000000000000000000e+00
8.667125000000000523e-02,0.000000000000000000e+00,0.000000000000000000e+00
8.845828608000000370e-02,0.000000000000000000e+00,0.000000000000000000e+00
9.024532217000000300e-02,0.000000000000000000e+00,0.000000000000000000e+00
9.203235825000000148e-02,0.000000000000000000e+00,0.000000000000000000e+00
9.381939432999999995e-02,0.000000000000000000e+00,0.000000000000000000e+00
9.560643040999999842e-02,0.000000000000000000e+00,0.000000000000000000e+00
9.739346649999999772e-02,0.000000000000000000e+00,0.000000000000000000e+00
9.918050257999999619e-02,0.000000000000000000e+00,0.000000000000000000e+00
1.009675386999999980e-01,0.000000000000000000e+00,0.000000000000000000e+00
1.027545747000000037e-01,0.000000000000000000e+00,0.000000000000000000e+00
1.045416108000000038e-01,0.000000000000000000e+00,0.000000000000000000e+00
1.063286469000000040e-01,0.000000000000000000e+00,0.000000000000000000e+00
1.081156830000000041e-01,0.000000000000000000e+00,0.000000000000000000e+00
1.099027191000000042e-01,0.000000000000000000e+00,0.000000000000000000e+00
1.116897552000000043e-01,0.000000000000000000e+00,0.000000000000000000e+00
1.134767911999999962e-01,0.000000000000000000e+00,0.000000000000000000e+00
1.152638272999999963e-01,0.000000000000000000e+00,0.000000000000000000e+00
1.170508633999999965e-01,0.000000000000000000e+00,0.000000000000000000e+00
1.188378994999999966e-01,0.000000000000000000e+00,0.000000000000000000e+00
1.206249355999999967e-01,0.000000000000000000e+00,0.000000000000000000e+00
1.224119716999999968e-01,0.000000000000000000e+00,0.000000000000000000e+00
1.241990077000000026e-01,0.000000000000000000e+00,0.000000000000000000e+00
1.259860438000000027e-01,0.000000000000000000e+00,0.000000000000000000e+00
1.277730799000000028e-01,0.000000000000000000e+00,0.000000000000000000e+00
1.295601160000000029e-01,0.000000000000000000e+00,0.000000000000000000e+00
1.313471521000000031e-01,0.000000000000000000e+00,0.000000000000000000e+00
1.331341880999999949e-01,0.000000000000000000e+00,0.000000000000000000e+00
1.349212241999999951e-01,0.000000000000000000e+00,0.000000000000000000e+00
1.367082602999999952e-01,0.000000000000000000e+00,0.000000000000000000e+00
1.384952963999999953e-01,0.000000000000000000e+00,0.000000000000000000e+00
1.402823324999999954e-01,0.000000000000000000e+00,0.000000000000000000e+00
1.420693685999999956e-01,0.000000000000000000e+00,0.000000000000000000e+00
1.438564045999999874e-01,0.000000000000000000e+00,0.000000000000000000e+00
1.456434406999999875e-01,0.000000000000000000e+00,0.000000000000000000e+00
1.474304767999999877e-01,0.000000000000000000e+00,0.000000000000000000e+00
1.492175128999999878e-01,0.000000000000000000e+00,0.000000000000000000e+00
1.510045489999999879e-01,0.000000000000000000e+00,0.000000000000000000e+00
1.527915850999999881e-01,0.000000000000000000e+00,0.000000000000000000e+00
1.545786211000000077e-01,0.000000000000000000e+00,0.000000000000000000e+00
1.563656572000000078e-01,0.000000000000000000e+00,0.000000000000000000e+00
1.581526933000000079e-01,0.000000000000000000e+00,0.000000000000000000e+00
1.599397294000000080e-01,0.000000000000000000e+00,0.000000000000000000e+00
1.617267655000000082e-01,0.000000000000000000e+00,0.000000000000000000e+00
1.635138016000000083e-01,0.000000000000000000e+00,0.000000000000000000e+00
1.653008376000000001e-01,0.000000000000000000e+00,0.000000000000000000e+00
1.670878737000000003e-01,0.000000000000000000e+00,0.000000000000000000e+00
1.688749098000000004e-01,0.000000000000000000e+00,0.000000000000000000e+00
1.706619459000000005e-01,0.000000000000000000e+00,0.000000000000000000e+00
1.724489820000000007e-01,0.000000000000000000e+00,0.000000000000000000e+00
1.742360179999999925e-01,0.000000000000000000e+00,0.000000000000000000e+00
1.760230540999999926e-01,0.000000000000000000e+00,0.000000000000000000e+00
1.778100901999999928e-01,0.000000000000000000e+00,0.000000000000000000e+00
